time,id
1720286802.139893000,4143
1720286802.139979000,4144
1720286802.161036000,4145
1720286802.161110000,4146
1720286802.175830000,4147
1720286802.175914000,4148
1720286802.192370000,4149
1720286802.192455000,4150
1720286802.210190000,4151
1720286802.210280000,4152
1720286802.236335000,4153
1720286802.236372000,4154
1720286802.236407000,4155
1720286802.236439000,4157
1720286802.236618000,4159
1720286802.236783000,4160
1720286802.236797000,4162
1720286802.236830000,4164
1720286802.236847000,4166
1720286802.236865000,4168
1720286802.236877000,4170
1720286802.236892000,4172
1720286802.236911000,4174
1720286802.236926000,4176
1720286802.237021000,4178
1720286802.237045000,4181
1720286802.237058000,4182
1720286802.237091000,4186
1720286802.262550000,4189
1720286802.262628000,4190
1720286802.277327000,4191
1720286802.277399000,4192
1720286802.291754000,4193
1720286802.291869000,4194
1720286802.305962000,4195
1720286802.306071000,4196
1720286802.320523000,4197
1720286802.320608000,4198
1720286802.334940000,4199
1720286802.335041000,4200
1720286802.349094000,4201
1720286802.349179000,4202
1720286802.363280000,4203
1720286802.363364000,4204
1720286802.377463000,4205
1720286802.377565000,4206
1720286802.391415000,4207
1720286802.391489000,4208
1720286802.405799000,4209
1720286802.405889000,4210
1720286802.421171000,4211
1720286802.421225000,4212
1720286802.421280000,4214
1720286802.421325000,4218
1720286802.421359000,4220
1720286802.421399000,4222
1720286802.421434000,4224
1720286802.421464000,4227
1720286802.421487000,4228
1720286802.421525000,4230
1720286802.421552000,4232
1720286802.421583000,4233
1720286802.421630000,4235
1720286802.421665000,4237
1720286802.421867000,4240
1720286802.435908000,4247
1720286802.435971000,4248
1720286802.450201000,4249
1720286802.450275000,4250
1720286802.464192000,4251
1720286802.464264000,4252
1720286802.478770000,4253
1720286802.478829000,4254
1720286802.503051000,4255
1720286802.503129000,4256
1720286802.524177000,4257
1720286802.543334000,4258
1720286802.543416000,4259
1720286802.567529000,4260
1720286802.581611000,4261
1720286802.599897000,4262
1720286802.619959000,4263
1720286802.636465000,4264
1720286802.636517000,4265
1720286802.636553000,4267
1720286802.636585000,4268
1720286802.636921000,4270
1720286802.636950000,4271
1720286802.636970000,4272
1720286802.636995000,4273
1720286802.637013000,4274
1720286802.637041000,4275
1720286802.637059000,4276
1720286802.637077000,4277
1720286802.637096000,4278
1720286802.637128000,4279
1720286802.637149000,4280
1720286802.637179000,4281
1720286802.637200000,4282
1720286802.637246000,4283
1720286802.637866000,4284
1720286802.637906000,4285
1720286802.637974000,4287
1720286802.638168000,4288
1720286802.638192000,4289
1720286802.638216000,4291
1720286802.638246000,4294
1720286802.638291000,4298
1720286802.651311000,4299
1720286802.669307000,4300
1720286802.685463000,4301
1720286802.711362000,4302
1720286802.733670000,4303
1720286802.747781000,4304
1720286802.791786000,4305
1720286802.791836000,4306
1720286802.801945000,4307
1720286802.816091000,4308
1720286802.830130000,4309
1720286802.844720000,4310
1720286802.844753000,4311
1720286802.844783000,4313
1720286802.844833000,4317
1720286802.844869000,4321
1720286802.844900000,4326
1720286802.844931000,4329
1720286802.844961000,4333
1720286802.844985000,4336
1720286802.845017000,4340
1720286802.845051000,4343
1720286802.859226000,4346
1720286802.873347000,4347
1720286802.887361000,4348
1720286802.901324000,4349
1720286802.915491000,4350
1720286802.929618000,4351
1720286802.943642000,4352
1720286802.957566000,4353
1720286802.971685000,4354
1720286802.985652000,4355
1720286802.999843000,4356
1720286803.014665000,4357
1720286803.014712000,4358
1720286803.014741000,4360
1720286803.014763000,4361
1720286803.014785000,4362
1720286803.014808000,4363
1720286803.014831000,4364
1720286803.014853000,4365
1720286803.014875000,4366
1720286803.014907000,4367
1720286803.014932000,4368
1720286803.014957000,4369
1720286803.014982000,4371
1720286803.015009000,4372
1720286803.015031000,4373
1720286803.015056000,4375
1720286803.015079000,4376
1720286803.015102000,4377
1720286803.015129000,4378
1720286803.015157000,4380
1720286803.015214000,4381
1720286803.015279000,4382
1720286803.015309000,4383
1720286803.015332000,4385
1720286803.015413000,4386
1720286803.015454000,4387
1720286803.015481000,4388
1720286803.015557000,4389
1720286803.015582000,4390
1720286803.015609000,4391
1720286803.029346000,4392
1720286803.053630000,4393
1720286803.067765000,4394
1720286803.081884000,4395
1720286803.095878000,4396
1720286803.139794000,4397
1720286803.139882000,4398
1720286803.152423000,4399
1720286803.167241000,4400
1720286803.186700000,4401
1720286803.201098000,4402
1720286803.216414000,4403
1720286803.216457000,4404
1720286803.216493000,4406
1720286803.216523000,4408
1720286803.216559000,4411
1720286803.216588000,4414
1720286803.216619000,4417
1720286803.216653000,4421
1720286803.216686000,4424
1720286803.216716000,4426
1720286803.216745000,4428
1720286803.216774000,4431
1720286803.216797000,4433
1720286803.216831000,4436
1720286803.242532000,4438
1720286803.261745000,4439
1720286803.275963000,4440
1720286803.289825000,4441
1720286803.331757000,4442
1720286803.334774000,4443
1720286803.348988000,4444
1720286803.363139000,4445
1720286803.363227000,4446
1720286803.388678000,4447
1720286803.388762000,4448
1720286803.408649000,4449
1720286803.408745000,4450
1720286803.422526000,4451
1720286803.422603000,4452
1720286803.437291000,4453
1720286803.437338000,4454
1720286803.437367000,4456
1720286803.437388000,4457
1720286803.437409000,4459
1720286803.437430000,4461
1720286803.437450000,4463
1720286803.437474000,4465
1720286803.437502000,4468
1720286803.437525000,4471
1720286803.437550000,4474
1720286803.437574000,4476
1720286803.437599000,4479
1720286803.437619000,4481
1720286803.437646000,4484
1720286803.437667000,4486
1720286803.451461000,4488
1720286803.451533000,4489
1720286803.477227000,4490
1720286803.477314000,4491
1720286803.496691000,4492
1720286803.496756000,4493
1720286803.510913000,4494
1720286803.511006000,4495
1720286803.524938000,4496
1720286803.525030000,4497
1720286803.550468000,4498
1720286803.550569000,4499
1720286803.568057000,4500
1720286803.568153000,4501
1720286803.593885000,4502
1720286803.593958000,4503
1720286803.618483000,4504
1720286803.618578000,4505
1720286803.632898000,4506
1720286803.632992000,4507
1720286803.653322000,4508
1720286803.653408000,4509
1720286803.668082000,4510
1720286803.668119000,4511
1720286803.668148000,4513
1720286803.668187000,4517
1720286803.668206000,4522
1720286803.668231000,4523
1720286803.668262000,4527
1720286803.668302000,4530
1720286803.668328000,4533
1720286803.668362000,4537
1720286803.668392000,4541
1720286803.668443000,4545
1720286803.683416000,4546
1720286803.683459000,4547
1720286803.683489000,4549
1720286803.683538000,4550
1720286803.683562000,4552
1720286803.683585000,4553
1720286803.697831000,4554
1720286803.697872000,4555
1720286803.697901000,4557
1720286803.697949000,4561
1720286803.712785000,4564
1720286803.712828000,4565
1720286803.712853000,4567
1720286803.712885000,4569
1720286803.712913000,4571
1720286803.712946000,4574
1720286803.727699000,4576
1720286803.727741000,4577
1720286803.727772000,4579
1720286803.727812000,4582
1720286803.727847000,4585
1720286803.742616000,4589
1720286803.742659000,4590
1720286803.742688000,4592
1720286803.742713000,4593
1720286803.742736000,4595
1720286803.742757000,4596
1720286803.742779000,4598
1720286803.742796000,4599
1720286803.742819000,4601
1720286803.757381000,4602
1720286803.757436000,4603
1720286803.757465000,4605
1720286803.757504000,4609
1720286803.757547000,4614
1720286803.772435000,4615
1720286803.772472000,4616
1720286803.772501000,4618
1720286803.772528000,4622
1720286803.772557000,4624
1720286803.772588000,4627
1720286803.787469000,4628
1720286803.787542000,4629
1720286803.787588000,4631
1720286803.787624000,4634
1720286803.787674000,4638
1720286803.802572000,4641
1720286803.802620000,4642
1720286803.802652000,4644
1720286803.802682000,4645
1720286803.802718000,4647
1720286803.802749000,4649
1720286803.802779000,4651
1720286803.817591000,4654
1720286803.817637000,4655
1720286803.817665000,4657
1720286803.817689000,4658
1720286803.817712000,4659
1720286803.817736000,4660
1720286803.817760000,4661
1720286803.817795000,4662
1720286803.817819000,4663
1720286803.817844000,4664
1720286803.817868000,4665
1720286803.817901000,4666
1720286803.817952000,4667
1720286803.831950000,4668
1720286803.831986000,4669
1720286803.832043000,4671
1720286803.846823000,4674
1720286803.846862000,4675
1720286803.846891000,4677
1720286803.846936000,4681
1720286803.846995000,4690
1720286803.847040000,4697
1720286803.847077000,4704
1720286803.862482000,4705
1720286803.862533000,4706
1720286803.862576000,4708
1720286803.862631000,4712
1720286803.878303000,4716
1720286803.878346000,4717
1720286803.878384000,4719
1720286803.878426000,4723
1720286803.893996000,4728
1720286803.894064000,4729
1720286803.894119000,4731
1720286803.894164000,4732
1720286803.894208000,4734
1720286803.894242000,4735
1720286803.894299000,4737
1720286803.894331000,4738
1720286803.909275000,4740
1720286803.909311000,4741
1720286803.909342000,4743
1720286803.909376000,4747
1720286803.935827000,4752
1720286803.935869000,4753
1720286803.935905000,4755
1720286803.935950000,4759
1720286803.935987000,4763
1720286803.951899000,4765
1720286803.951946000,4766
1720286803.951972000,4768
1720286803.952004000,4770
1720286803.952033000,4772
1720286803.952068000,4775
1720286803.967862000,4777
1720286803.967905000,4778
1720286803.967936000,4780
1720286803.967960000,4781
1720286803.967982000,4783
1720286803.968000000,4784
1720286803.968022000,4786
1720286803.968043000,4787
1720286803.968063000,4788
1720286803.984127000,4789
1720286803.984171000,4790
1720286803.984201000,4792
1720286803.984232000,4794
1720286803.984282000,4797
1720286803.984323000,4801
1720286804.000425000,4802
1720286804.000463000,4803
1720286804.000500000,4805
1720286804.000539000,4808
1720286804.000579000,4812
1720286804.016519000,4815
1720286804.016561000,4816
1720286804.016598000,4818
1720286804.016643000,4822
1720286804.016693000,4827
1720286804.033636000,4828
1720286804.033681000,4829
1720286804.033724000,4831
1720286804.033786000,4835
1720286804.048717000,4840
1720286804.048769000,4841
1720286804.048807000,4843
1720286804.048842000,4847
1720286804.048884000,4852
1720286804.048922000,4856
1720286804.048954000,4861
1720286804.064143000,4864
1720286804.064193000,4865
1720286804.064236000,4867
1720286804.064282000,4869
1720286804.064313000,4870
1720286804.079626000,4871
1720286804.079686000,4872
1720286804.079727000,4874
1720286804.079758000,4875
1720286804.079788000,4877
1720286804.079809000,4878
1720286804.079839000,4880
1720286804.079864000,4881
1720286804.095397000,4882
1720286804.095440000,4883
1720286804.095477000,4885
1720286804.095510000,4887
1720286804.095569000,4890
1720286804.110776000,4893
1720286804.110824000,4894
1720286804.110854000,4896
1720286804.110887000,4898
1720286804.110914000,4899
1720286804.110936000,4900
1720286804.110962000,4902
1720286804.110987000,4903
1720286804.111011000,4904
1720286804.111036000,4905
1720286804.125997000,4906
1720286804.126048000,4907
1720286804.126086000,4909
1720286804.126124000,4911
1720286804.126168000,4914
1720286804.141069000,4918
1720286804.141115000,4919
1720286804.141160000,4921
1720286804.141208000,4925
1720286804.141251000,4929
1720286804.156367000,4930
1720286804.156414000,4931
1720286804.156449000,4933
1720286804.156489000,4936
1720286804.156529000,4939
1720286804.156570000,4941
1720286804.171572000,4942
1720286804.171621000,4943
1720286804.171655000,4945
1720286804.171695000,4947
1720286804.171734000,4949
1720286804.171772000,4952
1720286804.188665000,4954
1720286804.189074000,4955
1720286804.189105000,4956
1720286804.189137000,4957
1720286804.189168000,4958
1720286804.189195000,4959
1720286804.189219000,4961
1720286804.189239000,4962
1720286804.189261000,4964
1720286804.189296000,4965
1720286804.189322000,4966
1720286804.189345000,4967
1720286804.189366000,4968
1720286804.202792000,4969
1720286804.202839000,4970
1720286804.202865000,4972
1720286804.202896000,4974
1720286804.202924000,4975
1720286804.202951000,4977
1720286804.202975000,4978
1720286804.218104000,4979
1720286804.218147000,4980
1720286804.218185000,4982
1720286804.218228000,4986
1720286804.218285000,4991
1720286804.233235000,4992
1720286804.233294000,4993
1720286804.233331000,4995
1720286804.233359000,4996
1720286804.233384000,4998
1720286804.233408000,4999
1720286804.233441000,5000
1720286804.233466000,5002
1720286804.233487000,5003
1720286804.248210000,5004
1720286804.248299000,5005
1720286804.248338000,5006
1720286804.248379000,5007
1720286804.248445000,5008
1720286804.248498000,5009
1720286804.248540000,5010
1720286804.248580000,5011
1720286804.248769000,5012
1720286804.248806000,5013
1720286804.248836000,5014
1720286804.263210000,5015
1720286804.263244000,5016
1720286804.263285000,5018
1720286804.263344000,5022
1720286804.278429000,5024
1720286804.278485000,5025
1720286804.278535000,5027
1720286804.278586000,5030
1720286804.293676000,5031
1720286804.293721000,5032
1720286804.293773000,5034
1720286804.307721000,5038
1720286804.321882000,5039
1720286804.336282000,5040
1720286804.350439000,5041
1720286804.364940000,5042
1720286804.379539000,5043
1720286804.404061000,5044
1720286804.418499000,5045
1720286804.444636000,5046
1720286804.470889000,5047
1720286804.491506000,5048
1720286804.506559000,5049
1720286804.506603000,5050
1720286804.506631000,5052
1720286804.506655000,5053
1720286804.506677000,5054
1720286804.506699000,5055
1720286804.506720000,5056
1720286804.522990000,5057
1720286804.523038000,5058
1720286804.523080000,5060
1720286804.523119000,5062
1720286804.523166000,5065
1720286804.539805000,5066
1720286804.539853000,5067
1720286804.539902000,5069
1720286804.539948000,5072
1720286804.539988000,5076
1720286804.555894000,5077
1720286804.555944000,5078
1720286804.555973000,5080
1720286804.555997000,5081
1720286804.556018000,5082
1720286804.556045000,5083
1720286804.556072000,5084
1720286804.556096000,5086
1720286804.556117000,5087
1720286804.571779000,5088
1720286804.571817000,5089
1720286804.571846000,5091
1720286804.571870000,5095
1720286804.571894000,5098
1720286804.571927000,5099
1720286804.598258000,5100
1720286804.598320000,5101
1720286804.598365000,5103
1720286804.598415000,5107
1720286804.598456000,5111
1720286804.625131000,5113
1720286804.625174000,5114
1720286804.625218000,5116
1720286804.625281000,5120
1720286804.625357000,5125
1720286804.652673000,5126
1720286804.652714000,5127
1720286804.652756000,5129
1720286804.652812000,5133
1720286804.652856000,5137
1720286804.674073000,5139
1720286804.674113000,5140
1720286804.674141000,5142
1720286804.674173000,5146
1720286804.674200000,5151
1720286804.674238000,5152
1720286804.695198000,5153
1720286804.695234000,5154
1720286804.695263000,5156
1720286804.695317000,5160
1720286804.695346000,5164
1720286804.717256000,5166
1720286804.717315000,5167
1720286804.717345000,5169
1720286804.717369000,5170
1720286804.717401000,5171
1720286804.717429000,5172
1720286804.717452000,5173
1720286804.717492000,5175
1720286804.717515000,5176
1720286804.717544000,5178
1720286804.717573000,5179
1720286804.737858000,5180
1720286804.737901000,5181
1720286804.737933000,5183
1720286804.737969000,5186
1720286804.738007000,5190
1720286804.738042000,5192
1720286804.764556000,5194
1720286804.764592000,5195
1720286804.764621000,5197
1720286804.764659000,5201
1720286804.764690000,5204
1720286804.764716000,5207
1720286804.780265000,5209
1720286804.780314000,5210
1720286804.780343000,5212
1720286804.780382000,5216
1720286804.780414000,5218
1720286804.780447000,5221
1720286804.801716000,5223
1720286804.801750000,5224
1720286804.801779000,5226
1720286804.801810000,5230
1720286804.801849000,5235
1720286804.801892000,5241
1720286804.801932000,5246
1720286804.801983000,5252
1720286804.825313000,5255
1720286804.825347000,5256
1720286804.825376000,5258
1720286804.825430000,5262
1720286804.841480000,5266
1720286804.841529000,5267
1720286804.841573000,5269
1720286804.841617000,5272
1720286804.841663000,5276
1720286804.858180000,5278
1720286804.858228000,5279
1720286804.858259000,5281
1720286804.858291000,5282
1720286804.858312000,5283
1720286804.858340000,5285
1720286804.858361000,5286
1720286804.858388000,5288
1720286804.858408000,5289
1720286804.874205000,5291
1720286804.874238000,5292
1720286804.874266000,5294
1720286804.874320000,5298
1720286804.874357000,5302
1720286804.890117000,5306
1720286804.890153000,5307
1720286804.890178000,5309
1720286804.890248000,5313
1720286804.905837000,5321
1720286804.905869000,5322
1720286804.905904000,5324
1720286804.905938000,5328
1720286804.905972000,5333
1720286804.921721000,5335
1720286804.921754000,5336
1720286804.921784000,5338
1720286804.921825000,5342
1720286804.921861000,5346
1720286804.937828000,5350
1720286804.937876000,5351
1720286804.937921000,5353
1720286804.937966000,5356
1720286804.938004000,5360
1720286804.938035000,5362
1720286804.938071000,5365
1720286804.953694000,5366
1720286804.953740000,5367
1720286804.953785000,5369
1720286804.953818000,5371
1720286804.953851000,5374
1720286804.953882000,5376
1720286804.953914000,5379
1720286804.968636000,5381
1720286804.968677000,5382
1720286804.968729000,5384
1720286804.983286000,5385
1720286804.983333000,5386
1720286804.999571000,5388
1720286804.999618000,5389
1720286804.999643000,5391
1720286804.999674000,5392
1720286804.999711000,5394
1720286804.999752000,5398
1720286804.999781000,5400
1720286804.999806000,5402
1720286804.999832000,5404
1720286804.999864000,5407
1720286804.999893000,5409
1720286804.999922000,5410
1720286804.999952000,5412
1720286804.999973000,5413
1720286805.000002000,5415
1720286805.000023000,5416
1720286805.000057000,5418
1720286805.000087000,5420
1720286805.000119000,5422
1720286805.000147000,5423
1720286805.000168000,5424
1720286805.000195000,5426
1720286805.000214000,5427
1720286805.000246000,5429
1720286805.014648000,5430
1720286805.014720000,5431
1720286805.029208000,5432
1720286805.043632000,5433
1720286805.058009000,5434
1720286805.072546000,5435
1720286805.090439000,5436
1720286805.111726000,5437
1720286805.132134000,5438
1720286805.151281000,5439
1720286805.167427000,5440
1720286805.181379000,5441
1720286805.199656000,5442
1720286805.199708000,5443
1720286805.199752000,5445
1720286805.199788000,5447
1720286805.199831000,5450
1720286805.199864000,5453
1720286805.199897000,5456
1720286805.199928000,5459
1720286805.199961000,5462
1720286805.199995000,5464
1720286805.200038000,5467
1720286805.200073000,5470
1720286805.200105000,5472
1720286805.200140000,5475
1720286805.200171000,5477
1720286805.200207000,5480
1720286805.200292000,5482
1720286805.200328000,5483
1720286805.214407000,5484
1720286805.214481000,5485
1720286805.232843000,5486
1720286805.232876000,5487
1720286805.251740000,5489
1720286805.251775000,5490
1720286805.251845000,5492
1720286805.266163000,5493
1720286805.266201000,5494
1720286805.280356000,5496
1720286805.280399000,5497
1720286805.280453000,5499
1720286805.294759000,5501
1720286805.294797000,5502
1720286805.294854000,5504
1720286805.320848000,5506
1720286805.320892000,5507
1720286805.320920000,5509
1720286805.320951000,5511
1720286805.320997000,5512
1720286805.344542000,5513
1720286805.344585000,5514
1720286805.344648000,5516
1720286805.358958000,5520
1720286805.358994000,5521
1720286805.359023000,5523
1720286805.359058000,5527
1720286805.385214000,5528
1720286805.385249000,5529
1720286805.385293000,5531
1720286805.385337000,5535
1720286805.405974000,5537
1720286805.406007000,5538
1720286805.406036000,5540
1720286805.406082000,5544
1720286805.421177000,5546
1720286805.421238000,5547
1720286805.421294000,5549
1720286805.421380000,5552
1720286805.421409000,5553
1720286805.421443000,5555
1720286805.421480000,5558
