time,id
1720286247.078003000,3880
1720286247.078061000,3881
1720286247.103602000,3882
1720286247.103670000,3883
1720286247.117783000,3884
1720286247.117857000,3885
1720286247.131929000,3886
1720286247.131998000,3887
1720286247.146204000,3888
1720286247.146281000,3889
1720286247.160088000,3890
1720286247.160170000,3891
1720286247.174026000,3892
1720286247.174099000,3893
1720286247.187790000,3894
1720286247.187862000,3895
1720286247.202651000,3896
1720286247.202749000,3897
1720286247.202800000,3898
1720286247.202826000,3899
1720286247.203169000,3900
1720286247.203184000,3902
1720286247.203235000,3904
1720286247.203244000,3906
1720286247.203251000,3909
1720286247.203284000,3912
1720286247.203296000,3915
1720286247.203353000,3917
1720286247.203497000,3918
1720286247.203519000,3922
1720286247.203561000,3926
1720286247.203623000,3927
1720286247.203657000,3928
1720286247.203677000,3929
1720286247.203699000,3930
1720286247.203740000,3931
1720286247.217360000,3932
1720286247.217425000,3933
1720286247.231608000,3934
1720286247.231676000,3935
1720286247.255665000,3936
1720286247.255731000,3937
1720286247.269629000,3938
1720286247.269707000,3939
1720286247.284849000,3940
1720286247.284932000,3941
1720286247.298939000,3942
1720286247.299007000,3943
1720286247.323446000,3944
1720286247.323538000,3945
1720286247.345266000,3946
1720286247.345351000,3947
1720286247.362187000,3948
1720286247.362269000,3949
1720286247.377910000,3950
1720286247.377996000,3951
1720286247.394781000,3952
1720286247.394856000,3953
1720286247.409877000,3954
1720286247.409913000,3955
1720286247.409944000,3957
1720286247.409984000,3960
1720286247.410007000,3964
1720286247.410026000,3965
1720286247.410043000,3966
1720286247.410074000,3968
1720286247.410096000,3971
1720286247.410126000,3972
1720286247.410150000,3973
1720286247.410182000,3975
1720286247.410203000,3977
1720286247.410222000,3978
1720286247.410244000,3979
1720286247.410268000,3981
1720286247.410288000,3983
1720286247.410306000,3984
1720286247.410324000,3985
1720286247.410346000,3986
1720286247.410488000,3988
1720286247.426612000,3990
1720286247.426692000,3991
1720286247.442997000,3992
1720286247.443073000,3993
1720286247.456701000,3994
1720286247.456777000,3995
1720286247.471037000,3996
1720286247.471119000,3997
1720286247.484984000,3998
1720286247.485061000,3999
1720286247.499188000,4000
1720286247.523256000,4001
1720286247.523340000,4002
1720286247.537192000,4003
1720286247.551788000,4004
1720286247.566095000,4005
1720286247.591150000,4006
1720286247.606740000,4007
1720286247.606792000,4008
1720286247.606828000,4010
1720286247.606867000,4012
1720286247.606902000,4014
1720286247.606945000,4017
1720286247.606981000,4020
1720286247.607012000,4024
1720286247.607047000,4026
1720286247.607083000,4029
1720286247.607121000,4031
1720286247.607171000,4034
1720286247.607218000,4038
1720286247.607250000,4040
1720286247.621340000,4042
1720286247.635555000,4043
1720286247.649522000,4044
1720286247.673755000,4045
1720286247.687629000,4046
1720286247.701765000,4047
1720286247.743779000,4048
1720286247.743874000,4049
1720286247.753685000,4050
1720286247.767598000,4051
1720286247.781574000,4052
1720286247.806295000,4053
1720286247.806331000,4054
1720286247.806367000,4056
1720286247.806395000,4059
1720286247.806427000,4063
1720286247.806459000,4067
1720286247.806501000,4072
1720286247.806534000,4075
1720286247.806568000,4079
1720286247.806604000,4084
1720286247.806643000,4087
1720286247.820372000,4089
1720286247.834257000,4090
1720286247.848148000,4091
1720286247.872354000,4092
1720286247.886164000,4093
1720286247.900024000,4094
1720286247.923942000,4095
1720286247.937924000,4096
1720286247.951794000,4097
1720286247.965842000,4098
1720286247.989792000,4099
1720286248.004406000,4100
1720286248.004448000,4101
1720286248.004478000,4103
1720286248.004504000,4104
1720286248.004525000,4106
1720286248.004552000,4108
1720286248.004578000,4110
1720286248.004599000,4112
1720286248.004629000,4115
1720286248.004655000,4118
1720286248.004683000,4121
1720286248.004706000,4123
1720286248.004732000,4126
1720286248.004754000,4128
1720286248.004781000,4131
1720286248.004813000,4133
1720286248.019505000,4135
1720286248.033731000,4136
1720286248.057661000,4137
1720286248.071602000,4138
1720286248.085451000,4139
1720286248.127778000,4140
1720286248.127859000,4141
1720286248.137034000,4142
1720286248.150895000,4143
1720286248.164797000,4144
1720286248.188725000,4145
1720286248.203324000,4146
1720286248.203356000,4147
1720286248.203384000,4149
1720286248.203423000,4153
1720286248.203457000,4158
1720286248.203497000,4163
1720286248.203541000,4168
1720286248.203572000,4170
1720286248.203617000,4172
1720286248.203655000,4174
1720286248.203738000,4176
1720286248.203772000,4177
1720286248.203805000,4179
1720286248.217331000,4181
1720286248.231178000,4182
1720286248.255034000,4183
1720286248.268883000,4184
1720286248.311740000,4185
1720286248.311768000,4186
1720286248.320558000,4187
1720286248.334415000,4188
1720286248.334508000,4189
1720286248.348248000,4190
1720286248.348330000,4191
1720286248.372313000,4192
1720286248.372385000,4193
1720286248.386436000,4194
1720286248.386506000,4195
1720286248.401570000,4196
1720286248.401612000,4197
1720286248.401670000,4199
1720286248.401752000,4200
1720286248.401774000,4201
1720286248.401801000,4203
1720286248.401829000,4206
1720286248.401864000,4210
1720286248.401893000,4213
1720286248.401924000,4217
1720286248.401963000,4220
1720286248.402074000,4221
1720286248.402125000,4222
1720286248.402165000,4223
1720286248.402195000,4224
1720286248.402221000,4225
1720286248.402259000,4227
1720286248.402289000,4229
1720286248.402315000,4230
1720286248.416096000,4231
1720286248.416176000,4232
1720286248.440453000,4233
1720286248.440533000,4234
1720286248.454836000,4235
1720286248.454914000,4236
1720286248.469053000,4237
1720286248.469133000,4238
1720286248.483188000,4239
1720286248.483282000,4240
1720286248.507648000,4241
1720286248.507728000,4242
1720286248.521742000,4243
1720286248.521822000,4244
1720286248.536217000,4245
1720286248.536298000,4246
1720286248.550484000,4247
1720286248.550559000,4248
1720286248.575071000,4249
1720286248.575143000,4250
1720286248.589371000,4251
1720286248.589429000,4252
1720286248.605097000,4253
1720286248.605157000,4254
1720286248.605194000,4256
1720286248.605224000,4257
1720286248.605254000,4258
1720286248.605282000,4259
1720286248.605311000,4260
1720286248.605340000,4261
1720286248.605367000,4262
1720286248.605395000,4263
1720286248.605429000,4264
1720286248.605457000,4266
1720286248.605483000,4267
1720286248.605509000,4268
1720286248.605539000,4269
1720286248.605567000,4270
1720286248.605594000,4271
1720286248.605621000,4272
1720286248.605648000,4273
1720286248.605675000,4274
1720286248.605713000,4275
1720286248.605750000,4276
1720286248.605779000,4277
1720286248.605806000,4278
1720286248.605833000,4279
1720286248.605867000,4280
1720286248.605895000,4282
1720286248.605923000,4283
1720286248.605954000,4284
1720286248.605981000,4285
1720286248.606008000,4286
1720286248.606035000,4287
1720286248.606063000,4288
1720286248.621101000,4289
1720286248.621149000,4290
1720286248.621189000,4292
1720286248.621221000,4293
1720286248.621251000,4295
1720286248.621280000,4296
1720286248.635973000,4297
1720286248.636013000,4298
1720286248.636052000,4300
1720286248.636083000,4301
1720286248.636124000,4302
1720286248.636155000,4303
1720286248.636183000,4305
1720286248.636212000,4306
1720286248.650960000,4307
1720286248.651001000,4308
1720286248.651047000,4310
1720286248.651090000,4313
1720286248.651132000,4316
1720286248.651163000,4317
1720286248.651192000,4318
1720286248.666028000,4319
1720286248.666068000,4320
1720286248.666122000,4322
1720286248.666154000,4323
1720286248.666182000,4324
1720286248.666211000,4325
1720286248.666239000,4326
1720286248.666266000,4327
1720286248.666293000,4328
1720286248.666320000,4329
1720286248.666347000,4330
1720286248.666374000,4331
1720286248.691198000,4332
1720286248.691233000,4333
1720286248.691261000,4335
1720286248.691305000,4339
1720286248.691346000,4342
1720286248.707331000,4345
1720286248.707372000,4346
1720286248.707412000,4348
1720286248.707443000,4349
1720286248.707472000,4350
1720286248.707501000,4351
1720286248.707548000,4353
1720286248.707581000,4354
1720286248.707612000,4356
1720286248.707639000,4357
1720286248.730388000,4358
1720286248.730422000,4359
1720286248.730451000,4361
1720286248.730499000,4365
1720286248.730539000,4369
1720286248.750635000,4371
1720286248.750669000,4372
1720286248.750694000,4374
1720286248.750740000,4378
1720286248.750782000,4383
1720286248.770789000,4384
1720286248.770821000,4385
1720286248.770849000,4387
1720286248.770894000,4391
1720286248.770936000,4395
1720286248.795816000,4397
1720286248.795853000,4398
1720286248.795883000,4400
1720286248.795919000,4404
1720286248.795963000,4406
1720286248.796005000,4409
1720286248.815546000,4411
1720286248.815584000,4412
1720286248.815637000,4414
1720286248.835552000,4417
1720286248.835596000,4418
1720286248.835626000,4420
1720286248.835665000,4424
1720286248.835700000,4428
1720286248.835736000,4433
1720286248.835772000,4437
1720286248.835798000,4440
1720286248.835832000,4444
1720286248.835901000,4446
1720286248.835934000,4447
1720286248.856241000,4448
1720286248.856282000,4449
1720286248.856319000,4451
1720286248.856351000,4452
1720286248.856380000,4453
1720286248.856409000,4454
1720286248.856442000,4455
1720286248.856470000,4457
1720286248.856497000,4458
1720286248.877469000,4459
1720286248.877514000,4460
1720286248.877552000,4462
1720286248.877585000,4463
1720286248.877614000,4464
1720286248.877644000,4465
1720286248.877673000,4467
1720286248.877702000,4468
1720286248.877731000,4469
1720286248.877763000,4470
1720286248.899116000,4471
1720286248.899161000,4472
1720286248.899199000,4474
1720286248.899231000,4475
1720286248.899260000,4476
1720286248.899289000,4477
1720286248.899318000,4478
1720286248.899347000,4480
1720286248.899380000,4481
1720286248.922542000,4483
1720286248.922584000,4484
1720286248.922618000,4486
1720286248.922652000,4490
1720286248.945767000,4495
1720286248.945808000,4496
1720286248.945840000,4498
1720286248.945874000,4502
1720286248.945909000,4507
1720286248.969034000,4508
1720286248.969064000,4509
1720286248.969092000,4511
1720286248.969139000,4515
1720286248.994017000,4520
1720286248.994062000,4521
1720286248.994099000,4523
1720286248.994140000,4524
1720286248.994173000,4525
1720286248.994202000,4526
1720286248.994231000,4527
1720286248.994258000,4528
1720286248.994285000,4529
1720286248.994312000,4530
1720286248.994339000,4531
1720286249.016040000,4532
1720286249.016080000,4533
1720286249.016137000,4535
1720286249.016180000,4538
1720286249.016212000,4540
1720286249.016242000,4541
1720286249.016271000,4543
1720286249.016300000,4544
1720286249.032118000,4545
1720286249.032157000,4546
1720286249.032186000,4548
1720286249.032222000,4552
1720286249.032259000,4557
1720286249.054095000,4558
1720286249.054153000,4559
1720286249.054197000,4561
1720286249.054244000,4564
1720286249.054286000,4568
1720286249.054327000,4570
1720286249.072377000,4571
1720286249.072418000,4572
1720286249.072462000,4574
1720286249.072507000,4576
1720286249.072537000,4578
1720286249.072566000,4579
1720286249.072594000,4580
1720286249.072623000,4581
1720286249.072651000,4582
1720286249.094608000,4583
1720286249.094649000,4584
1720286249.094692000,4586
1720286249.094725000,4588
1720286249.094760000,4589
1720286249.094790000,4591
1720286249.094819000,4592
1720286249.094848000,4593
1720286249.094877000,4594
1720286249.094904000,4595
1720286249.094932000,4596
1720286249.094959000,4597
1720286249.094986000,4598
1720286249.095013000,4599
1720286249.095046000,4600
1720286249.095073000,4602
1720286249.095100000,4603
1720286249.095146000,4604
1720286249.095182000,4605
1720286249.095228000,4606
1720286249.114068000,4607
1720286249.114102000,4608
1720286249.114157000,4610
1720286249.132692000,4614
1720286249.132727000,4615
1720286249.132756000,4617
1720286249.132809000,4621
1720286249.152949000,4625
1720286249.153004000,4626
1720286249.153037000,4628
1720286249.153074000,4630
1720286249.153122000,4632
1720286249.153171000,4635
1720286249.174770000,4636
1720286249.174810000,4637
1720286249.174840000,4639
1720286249.174874000,4640
1720286249.174900000,4641
1720286249.174922000,4642
1720286249.174950000,4644
1720286249.174977000,4645
1720286249.175002000,4646
1720286249.175026000,4647
1720286249.175055000,4648
1720286249.195902000,4649
1720286249.195940000,4650
1720286249.195969000,4652
1720286249.196002000,4656
1720286249.218392000,4661
1720286249.218428000,4662
1720286249.218456000,4664
1720286249.218500000,4668
1720286249.218521000,4672
1720286249.239062000,4673
1720286249.239095000,4674
1720286249.239148000,4676
1720286249.239200000,4680
1720286249.257479000,4685
1720286249.257512000,4686
1720286249.257550000,4688
1720286249.257587000,4691
1720286249.257622000,4695
1720286249.273138000,4697
1720286249.273183000,4698
1720286249.273221000,4700
1720286249.273255000,4702
1720286249.273288000,4705
1720286249.273319000,4707
1720286249.273355000,4710
1720286249.287882000,4712
1720286249.287913000,4713
1720286249.287941000,4715
1720286249.287979000,4719
1720286249.303088000,4722
1720286249.303908000,4723
1720286249.303944000,4724
1720286249.303971000,4726
1720286249.304004000,4728
1720286249.304039000,4730
1720286249.304068000,4732
1720286249.304098000,4734
1720286249.322192000,4735
1720286249.322227000,4736
1720286249.322255000,4738
1720286249.322281000,4742
1720286249.322318000,4744
1720286249.322343000,4746
1720286249.341194000,4747
1720286249.341237000,4748
1720286249.341273000,4750
1720286249.341318000,4754
1720286249.361967000,4758
1720286249.361999000,4759
1720286249.362035000,4761
1720286249.362072000,4764
1720286249.388000000,4767
1720286249.388044000,4768
1720286249.388080000,4770
1720286249.410291000,4774
1720286249.410322000,4775
1720286249.410380000,4777
1720286249.430552000,4781
1720286249.449830000,4782
1720286249.469372000,4783
1720286249.489324000,4784
1720286249.507599000,4785
1720286249.526492000,4786
1720286249.541254000,4787
1720286249.559177000,4788
1720286249.578904000,4789
1720286249.601186000,4790
1720286249.622446000,4791
1720286249.637240000,4792
1720286249.637275000,4793
1720286249.637303000,4795
1720286249.637333000,4799
1720286249.656330000,4800
1720286249.656364000,4801
1720286249.656400000,4803
1720286249.656439000,4806
1720286249.676399000,4809
1720286249.676442000,4810
1720286249.676471000,4812
1720286249.676497000,4813
1720286249.676520000,4815
1720286249.676539000,4816
1720286249.676560000,4818
1720286249.676580000,4819
1720286249.695609000,4820
1720286249.695652000,4821
1720286249.695689000,4823
1720286249.695740000,4827
1720286249.714268000,4831
1720286249.714301000,4832
1720286249.714338000,4834
1720286249.714370000,4838
1720286249.714402000,4841
1720286249.729638000,4843
1720286249.729671000,4844
1720286249.729694000,4846
1720286249.729714000,4847
1720286249.729733000,4848
1720286249.729752000,4849
1720286249.729770000,4850
1720286249.729788000,4851
1720286249.729806000,4852
1720286249.729824000,4853
1720286249.729845000,4854
1720286249.729875000,4855
1720286249.753245000,4856
1720286249.753280000,4857
1720286249.753316000,4859
1720286249.753345000,4862
1720286249.753375000,4865
1720286249.753412000,4868
1720286249.778318000,4869
1720286249.778351000,4870
1720286249.778386000,4872
1720286249.778426000,4875
1720286249.778457000,4879
1720286249.805151000,4882
1720286249.805189000,4883
1720286249.805220000,4885
1720286249.805253000,4889
1720286249.805289000,4894
1720286249.826722000,4896
1720286249.826767000,4897
1720286249.826805000,4899
1720286249.826848000,4903
1720286249.826894000,4908
1720286249.849996000,4909
1720286249.850048000,4910
1720286249.850076000,4912
1720286249.850120000,4913
1720286249.850150000,4914
1720286249.850180000,4916
1720286249.850201000,4917
1720286249.850229000,4919
1720286249.850261000,4920
1720286249.850290000,4922
1720286249.868369000,4923
1720286249.868417000,4924
1720286249.868449000,4926
1720286249.868471000,4927
1720286249.868497000,4929
1720286249.868523000,4932
1720286249.868547000,4935
1720286249.896227000,4937
1720286249.896276000,4938
1720286249.896318000,4940
1720286249.896347000,4941
1720286249.896373000,4942
1720286249.896397000,4943
1720286249.896424000,4944
1720286249.896453000,4945
1720286249.896479000,4946
1720286249.896509000,4947
1720286249.896537000,4948
1720286249.896566000,4949
1720286249.896593000,4950
1720286249.896627000,4951
1720286249.922266000,4952
1720286249.922314000,4953
1720286249.922344000,4955
1720286249.922373000,4957
1720286249.922401000,4958
1720286249.922427000,4960
1720286249.922451000,4961
1720286249.922474000,4962
1720286249.922498000,4963
1720286249.922521000,4964
1720286249.922545000,4965
1720286249.938339000,4966
1720286249.938383000,4967
1720286249.938426000,4969
1720286249.938484000,4973
1720286249.938528000,4976
1720286249.938572000,4980
1720286249.938615000,4984
1720286249.938656000,4987
1720286249.938697000,4991
1720286249.938739000,4994
1720286249.954753000,4998
1720286249.954787000,4999
1720286249.954816000,5001
1720286249.954884000,5005
1720286249.970837000,5009
1720286249.970885000,5010
1720286249.970915000,5012
1720286249.970945000,5014
1720286249.970970000,5015
1720286249.970994000,5016
1720286249.971018000,5018
1720286249.971040000,5019
1720286249.971061000,5020
1720286249.986294000,5021
1720286249.986337000,5022
1720286249.986376000,5024
1720286249.986405000,5025
1720286249.986429000,5027
1720286249.986459000,5028
1720286249.986490000,5030
1720286249.986515000,5032
1720286249.986544000,5033
1720286250.002377000,5034
1720286250.002426000,5035
1720286250.002466000,5037
1720286250.002529000,5041
1720286250.002569000,5044
1720286250.002617000,5048
1720286250.018524000,5049
1720286250.018560000,5050
1720286250.018589000,5052
1720286250.018611000,5054
1720286250.018633000,5055
1720286250.018658000,5057
1720286250.018682000,5059
1720286250.018707000,5061
1720286250.018734000,5063
1720286250.045576000,5064
1720286250.045613000,5065
1720286250.045642000,5067
1720286250.045672000,5068
1720286250.045716000,5070
1720286250.045747000,5071
1720286250.045778000,5072
1720286250.045806000,5073
1720286250.045834000,5074
1720286250.045862000,5075
1720286250.045891000,5076
1720286250.045921000,5077
1720286250.064281000,5078
1720286250.064327000,5079
1720286250.064366000,5081
1720286250.064395000,5082
1720286250.064422000,5083
1720286250.064449000,5084
1720286250.064472000,5085
1720286250.064517000,5087
1720286250.064545000,5088
1720286250.064573000,5089
1720286250.064600000,5090
1720286250.064626000,5091
1720286250.080363000,5093
1720286250.080411000,5094
1720286250.080446000,5096
1720286250.080491000,5099
1720286250.080526000,5101
1720286250.080555000,5103
1720286250.080588000,5106
1720286250.080618000,5108
1720286250.096920000,5109
1720286250.096969000,5110
1720286250.097011000,5112
1720286250.097063000,5116
1720286250.097124000,5121
1720286250.111345000,5124
1720286250.111379000,5125
1720286250.111419000,5127
1720286250.137002000,5128
1720286250.137035000,5129
1720286250.157258000,5131
1720286250.157299000,5132
1720286250.157331000,5134
1720286250.157367000,5137
1720286250.157399000,5141
1720286250.157432000,5144
1720286250.157464000,5146
1720286250.157490000,5148
1720286250.157630000,5151
1720286250.157664000,5152
1720286250.157697000,5154
1720286250.157722000,5155
1720286250.157748000,5157
1720286250.157779000,5159
1720286250.157810000,5161
1720286250.157832000,5162
1720286250.157858000,5163
1720286250.157879000,5164
1720286250.157911000,5166
1720286250.157937000,5169
1720286250.157966000,5170
1720286250.158002000,5172
1720286250.172528000,5173
1720286250.172644000,5174
1720286250.187208000,5175
1720286250.201369000,5176
1720286250.215646000,5177
1720286250.230918000,5178
1720286250.245386000,5179
1720286250.259954000,5180
1720286250.274664000,5181
1720286250.289257000,5182
