time,id
1720286664.051137000,2711
1720286664.051138000,2712
1720286664.066552000,2713
1720286664.066553000,2714
1720286664.082553000,2715
1720286664.082554000,2716
1720286664.096631000,2717
1720286664.096632000,2718
1720286664.110382000,2719
1720286664.110383000,2720
1720286664.129771000,2721
1720286664.129772000,2722
1720286664.148690000,2723
1720286664.148691000,2724
1720286664.163910000,2725
1720286664.163912000,2726
1720286664.163913000,2727
1720286664.163999000,2729
1720286664.164000000,2731
1720286664.164268000,2732
1720286664.164315000,2734
1720286664.164340000,2736
1720286664.164378000,2738
1720286664.164413000,2741
1720286664.164433000,2744
1720286664.164499000,2747
1720286664.164553000,2750
1720286664.164588000,2752
1720286664.164616000,2754
1720286664.164631000,2756
1720286664.180211000,2761
1720286664.180212000,2762
1720286664.194919000,2763
1720286664.194920000,2764
1720286664.209240000,2765
1720286664.209241000,2766
1720286664.225437000,2767
1720286664.225438000,2768
1720286664.240911000,2769
1720286664.240912000,2770
1720286664.255261000,2771
1720286664.255262000,2772
1720286664.285260000,2773
1720286664.285261000,2774
1720286664.306791000,2775
1720286664.306792000,2776
1720286664.328848000,2777
1720286664.328849000,2778
1720286664.345520000,2779
1720286664.345521000,2780
1720286664.360215000,2781
1720286664.360216000,2782
1720286664.375496000,2783
1720286664.375497000,2784
1720286664.375499000,2786
1720286664.375575000,2790
1720286664.375619000,2794
1720286664.375640000,2796
1720286664.375663000,2798
1720286664.375731000,2801
1720286664.375736000,2803
1720286664.375775000,2805
1720286664.375797000,2807
1720286664.375814000,2809
1720286664.375853000,2811
1720286664.375901000,2813
1720286664.389990000,2819
1720286664.389990000,2820
1720286664.404164000,2821
1720286664.404165000,2822
1720286664.418485000,2823
1720286664.418486000,2824
1720286664.432729000,2825
1720286664.432730000,2826
1720286664.447168000,2827
1720286664.447169000,2828
1720286664.461383000,2829
1720286664.475612000,2830
1720286664.475613000,2831
1720286664.489919000,2832
1720286664.503912000,2833
1720286664.528233000,2834
1720286664.549573000,2835
1720286664.564296000,2836
1720286664.564298000,2837
1720286664.564301000,2839
1720286664.564405000,2843
1720286664.564407000,2848
1720286664.564409000,2852
1720286664.564456000,2857
1720286664.564475000,2860
1720286664.564518000,2863
1720286664.564556000,2866
1720286664.564568000,2868
1720286664.564600000,2870
1720286664.582025000,2871
1720286664.597518000,2872
1720286664.611409000,2873
1720286664.625846000,2874
1720286664.642088000,2875
1720286664.657600000,2876
1720286664.699918000,2877
1720286664.699918000,2878
1720286664.715706000,2879
1720286664.729801000,2880
1720286664.747418000,2881
1720286664.762580000,2882
1720286664.762582000,2883
1720286664.762584000,2885
1720286664.762685000,2887
1720286664.762687000,2890
1720286664.762733000,2892
1720286664.762768000,2895
1720286664.762790000,2896
1720286664.762792000,2897
1720286664.762826000,2899
1720286664.762828000,2900
1720286664.762882000,2902
1720286664.762884000,2903
1720286664.762933000,2905
1720286664.762935000,2906
1720286664.763004000,2908
1720286664.763005000,2909
1720286664.763062000,2910
1720286664.763063000,2911
1720286664.763091000,2912
1720286664.763134000,2914
1720286664.763137000,2915
1720286664.763145000,2916
1720286664.777192000,2918
1720286664.791939000,2919
1720286664.811097000,2920
1720286664.829068000,2921
1720286664.844452000,2922
1720286664.858379000,2923
1720286664.872169000,2924
1720286664.886119000,2925
1720286664.910069000,2926
1720286664.923984000,2927
1720286664.937847000,2928
1720286664.962479000,2929
1720286664.962481000,2930
1720286664.962484000,2932
1720286664.962550000,2936
1720286664.962573000,2941
1720286664.962653000,2946
1720286664.962719000,2951
1720286664.962753000,2954
1720286664.962838000,2958
1720286664.962840000,2961
1720286664.976773000,2964
1720286664.990961000,2965
1720286665.004870000,2966
1720286665.028916000,2967
1720286665.042893000,2968
1720286665.084023000,2969
1720286665.084024000,2970
1720286665.091097000,2971
1720286665.115039000,2972
1720286665.128936000,2973
1720286665.142818000,2974
1720286665.157707000,2975
1720286665.157709000,2976
1720286665.157711000,2978
1720286665.157753000,2982
1720286665.157791000,2987
1720286665.157842000,2992
1720286665.157915000,2998
1720286665.157966000,3002
1720286665.158060000,3007
1720286665.158064000,3009
1720286665.174083000,3010
1720286665.188078000,3011
1720286665.217531000,3012
1720286665.232516000,3013
1720286665.276011000,3014
1720286665.276013000,3015
1720286665.280336000,3016
1720286665.297922000,3017
1720286665.297923000,3018
1720286665.317128000,3019
1720286665.317128000,3020
1720286665.335277000,3021
1720286665.335278000,3022
1720286665.350550000,3023
1720286665.350551000,3024
1720286665.367840000,3025
1720286665.367842000,3026
1720286665.367843000,3028
1720286665.367881000,3031
1720286665.367947000,3035
1720286665.367962000,3038
1720286665.368166000,3041
1720286665.368194000,3044
1720286665.368273000,3048
1720286665.368278000,3050
1720286665.368316000,3053
1720286665.368328000,3055
1720286665.368380000,3058
1720286665.389067000,3060
1720286665.389068000,3061
1720286665.407417000,3062
1720286665.407418000,3063
1720286665.421601000,3064
1720286665.421602000,3065
1720286665.435651000,3066
1720286665.435653000,3067
1720286665.450061000,3068
1720286665.450062000,3069
1720286665.464660000,3070
1720286665.464661000,3071
1720286665.478741000,3072
1720286665.478741000,3073
1720286665.492628000,3074
1720286665.492629000,3075
1720286665.506757000,3076
1720286665.506757000,3077
1720286665.520891000,3078
1720286665.520892000,3079
1720286665.545331000,3080
1720286665.545332000,3081
1720286665.564990000,3082
1720286665.564992000,3083
1720286665.565072000,3085
1720286665.565073000,3086
1720286665.565081000,3087
1720286665.565082000,3088
1720286665.565122000,3089
1720286665.565123000,3090
1720286665.565160000,3091
1720286665.565174000,3092
1720286665.565204000,3093
1720286665.565243000,3095
1720286665.565244000,3096
1720286665.565300000,3097
1720286665.565341000,3099
1720286665.565343000,3100
1720286665.565406000,3102
1720286665.565408000,3103
1720286665.565446000,3105
1720286665.565447000,3106
1720286665.565493000,3107
1720286665.565494000,3108
1720286665.565520000,3110
1720286665.565561000,3111
1720286665.565593000,3113
1720286665.565615000,3114
1720286665.565616000,3115
1720286665.565641000,3116
1720286665.565642000,3117
1720286665.580417000,3118
1720286665.580419000,3119
1720286665.580421000,3121
1720286665.580490000,3125
1720286665.595470000,3126
1720286665.595472000,3127
1720286665.595474000,3129
1720286665.595526000,3133
1720286665.611000000,3136
1720286665.611002000,3137
1720286665.611004000,3139
1720286665.611057000,3143
1720286665.611066000,3147
1720286665.626524000,3148
1720286665.626525000,3149
1720286665.626526000,3151
1720286665.626581000,3154
1720286665.626590000,3158
1720286665.648730000,3161
1720286665.648732000,3162
1720286665.648734000,3164
1720286665.648787000,3168
1720286665.648816000,3172
1720286665.663953000,3174
1720286665.663955000,3175
1720286665.663957000,3177
1720286665.664003000,3181
1720286665.664025000,3186
1720286665.678956000,3187
1720286665.678958000,3188
1720286665.678960000,3190
1720286665.679010000,3194
1720286665.679059000,3199
1720286665.694124000,3200
1720286665.694126000,3201
1720286665.694171000,3203
1720286665.694172000,3206
1720286665.694193000,3209
1720286665.694227000,3212
1720286665.720586000,3213
1720286665.720587000,3214
1720286665.720589000,3216
1720286665.720637000,3218
1720286665.720649000,3221
1720286665.720682000,3224
1720286665.738706000,3226
1720286665.738707000,3227
1720286665.738758000,3229
1720286665.738760000,3232
1720286665.738796000,3236
1720286665.753237000,3240
1720286665.753264000,3241
1720286665.753266000,3243
1720286665.753337000,3245
1720286665.768683000,3246
1720286665.768685000,3247
1720286665.768687000,3249
1720286665.768738000,3253
1720286665.768798000,3257
1720286665.768818000,3260
1720286665.768871000,3264
1720286665.768895000,3267
1720286665.768922000,3269
1720286665.768976000,3272
1720286665.769022000,3276
1720286665.784936000,3277
1720286665.784938000,3278
1720286665.784940000,3280
1720286665.785009000,3284
1720286665.801134000,3288
1720286665.801136000,3289
1720286665.801137000,3291
1720286665.801188000,3295
1720286665.801220000,3299
1720286665.816045000,3300
1720286665.816063000,3301
1720286665.816072000,3302
1720286665.816118000,3304
1720286665.816147000,3307
1720286665.816197000,3311
1720286665.831626000,3312
1720286665.831627000,3313
1720286665.831630000,3315
1720286665.831677000,3319
1720286665.831706000,3323
1720286665.846875000,3324
1720286665.846876000,3325
1720286665.846877000,3327
1720286665.846930000,3329
1720286665.846939000,3331
1720286665.846955000,3333
1720286665.846974000,3336
1720286665.874560000,3337
1720286665.874562000,3338
1720286665.874680000,3340
1720286665.874681000,3342
1720286665.874683000,3344
1720286665.874693000,3347
1720286665.890823000,3349
1720286665.890824000,3350
1720286665.890826000,3352
1720286665.890888000,3356
1720286665.906882000,3361
1720286665.906884000,3362
1720286665.906886000,3364
1720286665.906965000,3368
1720286665.906965000,3373
1720286665.921912000,3374
1720286665.921913000,3375
1720286665.921914000,3377
1720286665.921970000,3381
1720286665.922017000,3386
1720286665.937905000,3387
1720286665.937907000,3388
1720286665.937938000,3390
1720286665.937939000,3391
1720286665.937959000,3392
1720286665.937997000,3394
1720286665.938015000,3397
1720286665.952915000,3400
1720286665.952916000,3401
1720286665.952973000,3403
1720286665.952975000,3404
1720286665.952983000,3406
1720286665.952984000,3409
1720286665.953027000,3411
1720286665.968483000,3412
1720286665.968498000,3413
1720286665.968527000,3415
1720286665.968528000,3416
1720286665.968529000,3417
1720286665.968553000,3419
1720286665.968585000,3422
1720286665.968644000,3426
1720286665.968698000,3430
1720286665.968744000,3434
1720286665.983778000,3436
1720286665.983780000,3437
1720286665.983841000,3439
1720286665.983842000,3440
1720286665.983843000,3442
1720286665.998701000,3443
1720286665.998703000,3444
1720286665.998704000,3446
1720286665.998762000,3449
1720286665.998763000,3453
1720286666.026667000,3454
1720286666.026669000,3455
1720286666.026744000,3457
1720286666.026750000,3461
1720286666.026750000,3464
1720286666.046082000,3465
1720286666.046084000,3466
1720286666.046086000,3468
1720286666.046152000,3472
1720286666.046160000,3476
1720286666.062200000,3478
1720286666.062201000,3479
1720286666.062202000,3481
1720286666.062263000,3484
1720286666.062272000,3486
1720286666.062285000,3487
1720286666.062298000,3489
1720286666.088377000,3490
1720286666.088379000,3491
1720286666.088380000,3493
1720286666.088470000,3496
1720286666.088471000,3499
1720286666.088472000,3501
1720286666.114472000,3502
1720286666.114473000,3503
1720286666.114474000,3505
1720286666.114521000,3508
1720286666.114584000,3512
1720286666.129455000,3514
1720286666.129457000,3515
1720286666.129458000,3517
1720286666.129506000,3520
1720286666.129524000,3524
1720286666.144558000,3526
1720286666.144560000,3527
1720286666.144562000,3529
1720286666.144647000,3532
1720286666.144649000,3536
1720286666.144650000,3539
1720286666.159568000,3541
1720286666.159570000,3542
1720286666.159621000,3544
1720286666.159622000,3546
1720286666.159630000,3549
1720286666.174572000,3551
1720286666.174573000,3552
1720286666.174632000,3554
1720286666.174633000,3555
1720286666.174634000,3556
1720286666.174644000,3558
1720286666.174646000,3559
1720286666.174680000,3561
1720286666.174690000,3562
1720286666.201359000,3564
1720286666.201360000,3565
1720286666.201361000,3567
1720286666.201408000,3571
1720286666.216307000,3576
1720286666.216308000,3577
1720286666.216354000,3579
1720286666.216363000,3581
1720286666.216387000,3584
1720286666.231686000,3587
1720286666.231688000,3588
1720286666.231689000,3590
1720286666.231715000,3592
1720286666.231717000,3593
1720286666.231741000,3595
1720286666.257806000,3596
1720286666.257807000,3597
1720286666.257809000,3599
1720286666.257860000,3602
1720286666.272602000,3603
1720286666.272604000,3604
1720286666.272605000,3606
1720286666.272664000,3607
1720286666.272665000,3609
1720286666.286422000,3610
1720286666.300272000,3611
1720286666.313972000,3612
1720286666.327838000,3613
1720286666.353165000,3614
1720286666.378467000,3615
1720286666.397665000,3616
1720286666.411498000,3617
1720286666.425472000,3618
1720286666.439901000,3619
1720286666.453921000,3620
1720286666.479479000,3621
1720286666.479480000,3622
1720286666.479482000,3624
1720286666.479515000,3628
1720286666.494545000,3629
1720286666.494547000,3630
1720286666.494547000,3632
1720286666.494548000,3633
1720286666.494598000,3634
1720286666.494598000,3635
1720286666.494608000,3636
1720286666.494608000,3637
1720286666.509837000,3638
1720286666.509838000,3639
1720286666.509840000,3641
1720286666.509903000,3645
1720286666.525802000,3649
1720286666.525804000,3650
1720286666.525863000,3652
1720286666.525864000,3656
1720286666.525869000,3659
1720286666.541908000,3660
1720286666.541911000,3661
1720286666.541977000,3663
1720286666.541985000,3667
1720286666.541997000,3670
1720286666.556730000,3672
1720286666.556732000,3673
1720286666.556733000,3675
1720286666.556734000,3676
1720286666.556736000,3678
1720286666.556809000,3680
1720286666.556810000,3683
1720286666.572642000,3685
1720286666.572644000,3686
1720286666.572649000,3688
1720286666.572726000,3692
1720286666.572727000,3697
1720286666.588814000,3698
1720286666.588816000,3699
1720286666.588819000,3701
1720286666.588897000,3705
1720286666.588903000,3709
1720286666.604105000,3711
1720286666.604108000,3712
1720286666.604217000,3714
1720286666.604219000,3718
1720286666.604221000,3721
1720286666.619926000,3725
1720286666.619927000,3726
1720286666.619930000,3728
1720286666.619987000,3732
1720286666.619988000,3735
1720286666.635512000,3738
1720286666.635514000,3739
1720286666.635516000,3741
1720286666.635574000,3745
1720286666.635602000,3750
1720286666.650780000,3752
1720286666.650781000,3753
1720286666.650783000,3755
1720286666.650833000,3759
1720286666.666297000,3766
1720286666.666299000,3767
1720286666.666301000,3769
1720286666.666352000,3773
1720286666.666389000,3778
1720286666.681805000,3781
1720286666.681807000,3782
1720286666.681808000,3784
1720286666.681858000,3788
1720286666.681867000,3790
1720286666.681885000,3793
1720286666.697789000,3795
1720286666.697790000,3796
1720286666.697792000,3798
1720286666.697849000,3802
1720286666.697902000,3808
1720286666.697969000,3813
1720286666.698033000,3818
1720286666.698101000,3823
1720286666.714211000,3827
1720286666.714213000,3828
1720286666.714214000,3830
1720286666.714272000,3834
1720286666.729953000,3838
1720286666.729954000,3839
1720286666.729956000,3841
1720286666.730004000,3845
1720286666.730027000,3848
1720286666.745315000,3850
1720286666.745317000,3851
1720286666.745366000,3853
1720286666.745367000,3856
1720286666.745369000,3859
1720286666.745380000,3862
1720286666.761812000,3863
1720286666.761814000,3864
1720286666.761816000,3866
1720286666.761862000,3870
1720286666.761901000,3874
1720286666.761936000,3877
1720286666.777735000,3878
1720286666.777737000,3879
1720286666.777739000,3881
1720286666.777799000,3885
1720286666.777800000,3889
1720286666.777822000,3892
1720286666.793565000,3893
1720286666.793567000,3894
1720286666.793569000,3896
1720286666.793629000,3900
1720286666.793639000,3905
1720286666.809036000,3907
1720286666.809038000,3908
1720286666.809043000,3910
1720286666.809111000,3914
1720286666.809112000,3919
1720286666.825375000,3922
1720286666.825377000,3923
1720286666.825378000,3925
1720286666.825434000,3927
1720286666.825446000,3930
1720286666.825476000,3934
1720286666.825489000,3937
1720286666.840675000,3938
1720286666.840677000,3939
1720286666.840680000,3941
1720286666.840746000,3945
1720286666.840748000,3948
1720286666.840757000,3951
1720286666.862341000,3953
1720286666.862343000,3954
1720286666.862344000,3956
1720286666.885529000,3957
1720286666.885530000,3958
1720286666.905978000,3960
1720286666.905980000,3961
1720286666.905981000,3963
1720286666.906029000,3967
1720286666.906031000,3971
1720286666.906093000,3976
1720286666.906138000,3980
1720286666.906181000,3983
1720286666.906225000,3987
1720286666.906280000,3990
1720286666.906316000,3994
1720286666.906361000,3998
1720286666.920720000,4002
1720286666.920721000,4003
1720286666.936038000,4004
1720286666.950135000,4005
1720286666.965199000,4006
1720286666.979975000,4007
1720286666.994568000,4008
1720286667.009327000,4009
1720286667.023275000,4010
1720286667.037374000,4011
1720286667.052653000,4012
1720286667.066876000,4013
1720286667.083053000,4014
1720286667.083055000,4015
1720286667.083057000,4017
1720286667.083137000,4019
1720286667.083138000,4022
1720286667.083316000,4023
1720286667.083325000,4024
1720286667.083384000,4025
1720286667.083401000,4026
1720286667.083420000,4027
1720286667.083499000,4029
1720286667.083509000,4030
1720286667.083533000,4032
1720286667.083560000,4033
1720286667.083600000,4034
1720286667.083660000,4036
1720286667.083680000,4037
1720286667.083704000,4038
1720286667.083750000,4039
1720286667.083771000,4040
1720286667.083793000,4041
1720286667.083989000,4042
1720286667.083990000,4043
1720286667.084038000,4044
1720286667.084039000,4045
1720286667.084074000,4046
1720286667.084117000,4048
1720286667.084119000,4049
1720286667.084161000,4051
1720286667.084162000,4052
1720286667.084196000,4054
1720286667.084197000,4055
1720286667.097800000,4056
1720286667.097801000,4057
1720286667.113420000,4058
1720286667.113422000,4059
1720286667.128516000,4061
1720286667.128518000,4062
1720286667.128518000,4064
1720286667.143395000,4065
1720286667.143397000,4066
1720286667.157872000,4068
1720286667.157873000,4069
1720286667.157875000,4071
1720286667.172776000,4073
1720286667.172777000,4074
1720286667.172778000,4076
1720286667.188648000,4078
1720286667.188649000,4079
1720286667.188650000,4081
1720286667.203766000,4085
1720286667.203767000,4086
1720286667.203768000,4088
1720286667.218178000,4092
1720286667.218179000,4093
1720286667.218180000,4095
1720286667.218232000,4097
1720286667.233757000,4100
1720286667.233758000,4101
1720286667.233814000,4103
1720286667.233835000,4106
1720286667.248772000,4109
1720286667.248773000,4110
1720286667.248775000,4112
1720286667.248820000,4116
1720286667.264513000,4118
1720286667.264514000,4119
1720286667.264563000,4121
1720286667.264582000,4125
1720286667.264672000,4132
1720286667.264687000,4135
1720286667.264767000,4139
1720286667.264788000,4141
1720286667.264821000,4144
1720286667.264877000,4147
1720286667.264941000,4151
1720286667.264952000,4153
1720286667.265012000,4156
1720286667.265031000,4158
1720286667.280491000,4160
1720286667.280492000,4161
1720286667.280493000,4163
1720286667.295816000,4166
1720286667.295817000,4167
1720286667.295818000,4169
1720286667.295865000,4171
1720286667.295871000,4173
1720286667.295884000,4175
1720286667.310744000,4176
1720286667.310745000,4177
1720286667.310747000,4179
1720286667.310794000,4183
1720286667.310794000,4185
1720286667.326030000,4186
1720286667.326031000,4187
1720286667.326032000,4189
1720286667.326033000,4190
1720286667.326088000,4192
1720286667.326101000,4194
1720286667.326103000,4195
1720286667.342024000,4197
1720286667.342026000,4198
1720286667.342071000,4200
1720286667.342072000,4201
1720286667.342073000,4203
1720286667.342074000,4204
1720286667.342084000,4206
1720286667.342084000,4208
1720286667.357467000,4210
1720286667.357468000,4211
1720286667.357521000,4213
1720286667.357522000,4214
1720286667.357535000,4216
1720286667.357537000,4217
1720286667.357538000,4219
1720286667.372270000,4221
1720286667.372272000,4222
1720286667.372273000,4224
1720286667.372328000,4228
1720286667.372334000,4231
1720286667.387304000,4234
1720286667.387306000,4235
1720286667.387308000,4237
1720286667.387350000,4241
