time,id
1720214254.700306000,2718
1720214254.700401000,2719
1720214254.715097000,2720
1720214254.715185000,2721
1720214254.730768000,2722
1720214254.730886000,2723
1720214254.748462000,2724
1720214254.748564000,2725
1720214254.767226000,2726
1720214254.767313000,2727
1720214254.782636000,2728
1720214254.782715000,2729
1720214254.796915000,2730
1720214254.796991000,2731
1720214254.811734000,2732
1720214254.811768000,2733
1720214254.811797000,2734
1720214254.811817000,2736
1720214254.812298000,2738
1720214254.812311000,2740
1720214254.812326000,2742
1720214254.812334000,2744
1720214254.812339000,2747
1720214254.812371000,2750
1720214254.812382000,2753
1720214254.812403000,2756
1720214254.812859000,2758
1720214254.812874000,2760
1720214254.812900000,2762
1720214254.812917000,2766
1720214254.826857000,2768
1720214254.826925000,2769
1720214254.841720000,2770
1720214254.841795000,2771
1720214254.864450000,2772
1720214254.864560000,2773
1720214254.885776000,2774
1720214254.885843000,2775
1720214254.899687000,2776
1720214254.899758000,2777
1720214254.913843000,2778
1720214254.913922000,2779
1720214254.927811000,2780
1720214254.927903000,2781
1720214254.942262000,2782
1720214254.942388000,2783
1720214254.956248000,2784
1720214254.956346000,2785
1720214254.970591000,2786
1720214254.970690000,2787
1720214254.984574000,2788
1720214254.984642000,2789
1720214255.009659000,2790
1720214255.009717000,2791
1720214255.009752000,2793
1720214255.009779000,2794
1720214255.009801000,2795
1720214255.009825000,2797
1720214255.009847000,2798
1720214255.009871000,2799
1720214255.009889000,2800
1720214255.009913000,2802
1720214255.009936000,2803
1720214255.009961000,2805
1720214255.009982000,2806
1720214255.010006000,2808
1720214255.010023000,2809
1720214255.010046000,2811
1720214255.010070000,2812
1720214255.010096000,2813
1720214255.010910000,2814
1720214255.010933000,2819
1720214255.010966000,2824
1720214255.023897000,2826
1720214255.023968000,2827
1720214255.037782000,2828
1720214255.037876000,2829
1720214255.055282000,2830
1720214255.055357000,2831
1720214255.078993000,2832
1720214255.079060000,2833
1720214255.095579000,2834
1720214255.095655000,2835
1720214255.115413000,2836
1720214255.140099000,2837
1720214255.140204000,2838
1720214255.156521000,2839
1720214255.172161000,2840
1720214255.186300000,2841
1720214255.201192000,2842
1720214255.217598000,2843
1720214255.217642000,2844
1720214255.217668000,2846
1720214255.217706000,2847
1720214255.217735000,2849
1720214255.217759000,2850
1720214255.217792000,2852
1720214255.217819000,2854
1720214255.217844000,2856
1720214255.217869000,2858
1720214255.217895000,2860
1720214255.217920000,2862
1720214255.217947000,2864
1720214255.217970000,2865
1720214255.217998000,2867
1720214255.218019000,2868
1720214255.218051000,2870
1720214255.218084000,2872
1720214255.218118000,2875
1720214255.218142000,2877
1720214255.232004000,2878
1720214255.246272000,2879
1720214255.260245000,2880
1720214255.274508000,2881
1720214255.288555000,2882
1720214255.302815000,2883
1720214255.343718000,2884
1720214255.343788000,2885
1720214255.355778000,2886
1720214255.369910000,2887
1720214255.384436000,2888
1720214255.409547000,2889
1720214255.409595000,2890
1720214255.409648000,2892
1720214255.409675000,2893
1720214255.409716000,2894
1720214255.409739000,2895
1720214255.409766000,2896
1720214255.409791000,2897
1720214255.409816000,2898
1720214255.409847000,2899
1720214255.409879000,2900
1720214255.409904000,2901
1720214255.409928000,2902
1720214255.409953000,2903
1720214255.409977000,2904
1720214255.410002000,2905
1720214255.410027000,2906
1720214255.410054000,2907
1720214255.410078000,2908
1720214255.410102000,2909
1720214255.410124000,2910
1720214255.410154000,2911
1720214255.410182000,2912
1720214255.410207000,2913
1720214255.410231000,2914
1720214255.410256000,2915
1720214255.410281000,2916
1720214255.410305000,2917
1720214255.410329000,2918
1720214255.410353000,2919
1720214255.410377000,2920
1720214255.410400000,2921
1720214255.412106000,2922
1720214255.412152000,2923
1720214255.424039000,2925
1720214255.438614000,2926
1720214255.452822000,2927
1720214255.467147000,2928
1720214255.491580000,2929
1720214255.505885000,2930
1720214255.519964000,2931
1720214255.534330000,2932
1720214255.558763000,2933
1720214255.572929000,2934
1720214255.587321000,2935
1720214255.602327000,2936
1720214255.602359000,2937
1720214255.602385000,2939
1720214255.602421000,2943
1720214255.602459000,2947
1720214255.602492000,2952
1720214255.602644000,2956
1720214255.602672000,2957
1720214255.602706000,2958
1720214255.602732000,2960
1720214255.602758000,2963
1720214255.602808000,2967
1720214255.616968000,2971
1720214255.641337000,2972
1720214255.655996000,2973
1720214255.670297000,2974
1720214255.684458000,2975
1720214255.727750000,2976
1720214255.727830000,2977
1720214255.737268000,2978
1720214255.751610000,2979
1720214255.766140000,2980
1720214255.790318000,2981
1720214255.805476000,2982
1720214255.805508000,2983
1720214255.805537000,2985
1720214255.805570000,2989
1720214255.805611000,2994
1720214255.805642000,2999
1720214255.805663000,3001
1720214255.805690000,3002
1720214255.805723000,3004
1720214255.805753000,3007
1720214255.805784000,3011
1720214255.805832000,3016
1720214255.819841000,3017
1720214255.834084000,3018
1720214255.858314000,3019
1720214255.884718000,3020
1720214255.927733000,3021
1720214255.929521000,3022
1720214255.943673000,3023
1720214255.957789000,3024
1720214255.957847000,3025
1720214255.972166000,3026
1720214255.972227000,3027
1720214255.986471000,3028
1720214255.986543000,3029
1720214256.000905000,3030
1720214256.000965000,3031
1720214256.016597000,3032
1720214256.018189000,3033
1720214256.018233000,3034
1720214256.018286000,3036
1720214256.018321000,3037
1720214256.018345000,3038
1720214256.018383000,3040
1720214256.018407000,3042
1720214256.018433000,3044
1720214256.018470000,3047
1720214256.018499000,3050
1720214256.018651000,3051
1720214256.018688000,3052
1720214256.018730000,3053
1720214256.018943000,3054
1720214256.018975000,3055
1720214256.019006000,3057
1720214256.019029000,3058
1720214256.019050000,3059
1720214256.019081000,3060
1720214256.019109000,3061
1720214256.019142000,3063
1720214256.019178000,3065
1720214256.033223000,3067
1720214256.033335000,3068
1720214256.048845000,3069
1720214256.048923000,3070
1720214256.067675000,3071
1720214256.067772000,3072
1720214256.087117000,3073
1720214256.087182000,3074
1720214256.104068000,3075
1720214256.104142000,3076
1720214256.125540000,3077
1720214256.125630000,3078
1720214256.140205000,3079
1720214256.140281000,3080
1720214256.154762000,3081
1720214256.154899000,3082
1720214256.169363000,3083
1720214256.169442000,3084
1720214256.185156000,3085
1720214256.185240000,3086
1720214256.199852000,3087
1720214256.199934000,3088
1720214256.215222000,3089
1720214256.215257000,3090
1720214256.215284000,3092
1720214256.215319000,3096
1720214256.215357000,3101
1720214256.215393000,3105
1720214256.215424000,3109
1720214256.215450000,3112
1720214256.215492000,3116
1720214256.215511000,3117
1720214256.215530000,3119
1720214256.215555000,3121
1720214256.215569000,3124
1720214256.235380000,3125
1720214256.235424000,3126
1720214256.235456000,3128
1720214256.235503000,3129
1720214256.235527000,3130
1720214256.235549000,3131
1720214256.235573000,3132
1720214256.250471000,3133
1720214256.250524000,3134
1720214256.250568000,3136
1720214256.250610000,3139
1720214256.250651000,3142
1720214256.269542000,3143
1720214256.269574000,3144
1720214256.269597000,3146
1720214256.269616000,3147
1720214256.269635000,3148
1720214256.269653000,3149
1720214256.269671000,3150
1720214256.269703000,3152
1720214256.269722000,3153
1720214256.269740000,3154
1720214256.285866000,3155
1720214256.285901000,3156
1720214256.285928000,3158
1720214256.285953000,3162
1720214256.285973000,3164
1720214256.285998000,3166
1720214256.301173000,3168
1720214256.301217000,3169
1720214256.301249000,3171
1720214256.301278000,3173
1720214256.301313000,3176
1720214256.301341000,3179
1720214256.327461000,3181
1720214256.327517000,3182
1720214256.327542000,3184
1720214256.327564000,3185
1720214256.327584000,3187
1720214256.327605000,3189
1720214256.327624000,3191
1720214256.349533000,3194
1720214256.349570000,3195
1720214256.349599000,3197
1720214256.349637000,3201
1720214256.349669000,3205
1720214256.369866000,3207
1720214256.369907000,3208
1720214256.369945000,3210
1720214256.369983000,3213
1720214256.370012000,3215
1720214256.370033000,3217
1720214256.390439000,3220
1720214256.390475000,3221
1720214256.390503000,3223
1720214256.390538000,3227
1720214256.390591000,3232
1720214256.405768000,3233
1720214256.405816000,3234
1720214256.405852000,3236
1720214256.405879000,3237
1720214256.405920000,3238
1720214256.405946000,3239
1720214256.405976000,3240
1720214256.406003000,3242
1720214256.406029000,3243
1720214256.406055000,3244
1720214256.406081000,3245
1720214256.406107000,3246
1720214256.427863000,3247
1720214256.427896000,3248
1720214256.427945000,3250
1720214256.447949000,3253
1720214256.447987000,3254
1720214256.448016000,3256
1720214256.448052000,3260
1720214256.448087000,3265
1720214256.448116000,3267
1720214256.448144000,3270
1720214256.448167000,3272
1720214256.448192000,3275
1720214256.448211000,3276
1720214256.448285000,3278
1720214256.448307000,3279
1720214256.448338000,3281
1720214256.448357000,3282
1720214256.468642000,3284
1720214256.468691000,3285
1720214256.468727000,3287
1720214256.468766000,3291
1720214256.485216000,3295
1720214256.485263000,3296
1720214256.485291000,3298
1720214256.485326000,3302
1720214256.501179000,3307
1720214256.501215000,3308
1720214256.501243000,3310
1720214256.501287000,3314
1720214256.516876000,3319
1720214256.516915000,3320
1720214256.516942000,3322
1720214256.517013000,3326
1720214256.540754000,3331
1720214256.540805000,3332
1720214256.540834000,3334
1720214256.540868000,3338
1720214256.540904000,3343
1720214256.567488000,3344
1720214256.567523000,3345
1720214256.567558000,3347
1720214256.567593000,3351
1720214256.567619000,3354
1720214256.585160000,3356
1720214256.585196000,3357
1720214256.585225000,3359
1720214256.585276000,3363
1720214256.585322000,3366
1720214256.612134000,3368
1720214256.612167000,3369
1720214256.612194000,3371
1720214256.612231000,3375
1720214256.612268000,3380
1720214256.628257000,3381
1720214256.628293000,3382
1720214256.628320000,3384
1720214256.628353000,3388
1720214256.628391000,3393
1720214256.644266000,3394
1720214256.644301000,3395
1720214256.644329000,3397
1720214256.644356000,3401
1720214256.644381000,3406
1720214256.662271000,3407
1720214256.662316000,3408
1720214256.662335000,3410
1720214256.662370000,3412
1720214256.662399000,3415
1720214256.676879000,3419
1720214256.676913000,3420
1720214256.676941000,3422
1720214256.676976000,3426
1720214256.677011000,3431
1720214256.677055000,3434
1720214256.677074000,3435
1720214256.677097000,3437
1720214256.677130000,3440
1720214256.677164000,3442
1720214256.691931000,3443
1720214256.691961000,3444
1720214256.691983000,3446
1720214256.692008000,3448
1720214256.715831000,3450
1720214256.715864000,3451
1720214256.715891000,3453
1720214256.715941000,3457
1720214256.734835000,3461
1720214256.734884000,3462
1720214256.734912000,3464
1720214256.734939000,3467
1720214256.734977000,3471
1720214256.754589000,3472
1720214256.754639000,3473
1720214256.754688000,3475
1720214256.754717000,3476
1720214256.754743000,3477
1720214256.754769000,3478
1720214256.754794000,3479
1720214256.754819000,3480
1720214256.754843000,3481
1720214256.754868000,3482
1720214256.754901000,3484
1720214256.772433000,3485
1720214256.772485000,3486
1720214256.772518000,3488
1720214256.772557000,3490
1720214256.772586000,3493
1720214256.788857000,3497
1720214256.788891000,3498
1720214256.788919000,3500
1720214256.788949000,3504
1720214256.788987000,3508
1720214256.805691000,3509
1720214256.805724000,3510
1720214256.805752000,3512
1720214256.805786000,3516
1720214256.821337000,3521
1720214256.821368000,3522
1720214256.821396000,3524
1720214256.821430000,3528
1720214256.838622000,3533
1720214256.838663000,3534
1720214256.838709000,3536
1720214256.838754000,3540
1720214256.838800000,3545
1720214256.856283000,3548
1720214256.856319000,3549
1720214256.856346000,3551
1720214256.856361000,3552
1720214256.856386000,3554
1720214256.856411000,3556
1720214256.874829000,3558
1720214256.874871000,3559
1720214256.874897000,3561
1720214256.874920000,3562
1720214256.874944000,3564
1720214256.874971000,3567
1720214256.875000000,3569
1720214256.889833000,3571
1720214256.889875000,3572
1720214256.889908000,3574
1720214256.889934000,3575
1720214256.889960000,3577
1720214256.889982000,3578
1720214256.890018000,3580
1720214256.890043000,3581
1720214256.890068000,3582
1720214256.904707000,3583
1720214256.904742000,3584
1720214256.904792000,3586
1720214256.904834000,3590
1720214256.904864000,3592
1720214256.904890000,3593
1720214256.922312000,3594
1720214256.922356000,3595
1720214256.922391000,3597
1720214256.922436000,3601
1720214256.940025000,3603
1720214256.940068000,3604
1720214256.940102000,3606
1720214256.940132000,3607
1720214256.940161000,3608
1720214256.940189000,3609
1720214256.958573000,3610
1720214256.958628000,3611
1720214256.958669000,3613
1720214256.958717000,3615
1720214256.975321000,3617
1720214256.991821000,3618
1720214257.008067000,3619
1720214257.022143000,3620
1720214257.036118000,3621
1720214257.050160000,3622
1720214257.064353000,3623
1720214257.083488000,3624
1720214257.099168000,3625
1720214257.116076000,3626
1720214257.136079000,3627
1720214257.155351000,3628
1720214257.155385000,3629
1720214257.155411000,3631
1720214257.155454000,3635
1720214257.177487000,3636
1720214257.177523000,3637
1720214257.177546000,3639
1720214257.177565000,3640
1720214257.177584000,3641
1720214257.177602000,3642
1720214257.177620000,3643
1720214257.177638000,3644
1720214257.196617000,3645
1720214257.196654000,3646
1720214257.196692000,3648
1720214257.196718000,3650
1720214257.196736000,3652
1720214257.196764000,3655
1720214257.214769000,3656
1720214257.214806000,3657
1720214257.214833000,3659
1720214257.214872000,3663
1720214257.235837000,3667
1720214257.235892000,3668
1720214257.235931000,3670
1720214257.235961000,3671
1720214257.235992000,3672
1720214257.236022000,3673
1720214257.236053000,3674
1720214257.236082000,3675
1720214257.236113000,3676
1720214257.236143000,3677
1720214257.236173000,3678
1720214257.256208000,3679
1720214257.256242000,3680
1720214257.256270000,3682
1720214257.256299000,3686
1720214257.256324000,3688
1720214257.256348000,3691
1720214257.275993000,3692
1720214257.276027000,3693
1720214257.276054000,3695
1720214257.276089000,3699
1720214257.276123000,3704
1720214257.296531000,3705
1720214257.296571000,3706
1720214257.296607000,3708
1720214257.296646000,3712
1720214257.296693000,3714
1720214257.296740000,3717
1720214257.317627000,3718
1720214257.317659000,3719
1720214257.317701000,3721
1720214257.317727000,3723
1720214257.317746000,3725
1720214257.317764000,3726
1720214257.317782000,3727
1720214257.317801000,3729
1720214257.317819000,3730
1720214257.317837000,3731
1720214257.339133000,3732
1720214257.339168000,3733
1720214257.339195000,3735
1720214257.339234000,3739
1720214257.339266000,3743
1720214257.359645000,3745
1720214257.360855000,3746
1720214257.360885000,3747
1720214257.360907000,3748
1720214257.360926000,3750
1720214257.360944000,3751
1720214257.360962000,3752
1720214257.361067000,3753
1720214257.361088000,3754
1720214257.361106000,3755
1720214257.361125000,3756
1720214257.361142000,3757
1720214257.380177000,3759
1720214257.380210000,3760
1720214257.380238000,3762
1720214257.380272000,3766
1720214257.380313000,3771
1720214257.401587000,3773
1720214257.401646000,3774
1720214257.401697000,3776
1720214257.401721000,3777
1720214257.401753000,3778
1720214257.401788000,3780
1720214257.401831000,3783
1720214257.401861000,3787
1720214257.425524000,3788
1720214257.425554000,3789
1720214257.425583000,3791
1720214257.425602000,3792
1720214257.425620000,3794
1720214257.425638000,3795
1720214257.425655000,3796
1720214257.425673000,3797
1720214257.425702000,3798
1720214257.425723000,3799
1720214257.425741000,3801
1720214257.448939000,3802
1720214257.448981000,3803
1720214257.449014000,3805
1720214257.449035000,3806
1720214257.449057000,3807
1720214257.449083000,3808
1720214257.449106000,3809
1720214257.449127000,3811
1720214257.449147000,3812
1720214257.449168000,3813
1720214257.449188000,3814
1720214257.449209000,3815
1720214257.449233000,3816
1720214257.449253000,3817
1720214257.449272000,3818
1720214257.449292000,3819
1720214257.449313000,3820
1720214257.449333000,3821
1720214257.449353000,3822
1720214257.449374000,3823
1720214257.449401000,3824
1720214257.449424000,3825
1720214257.449445000,3826
1720214257.449466000,3827
1720214257.449486000,3828
1720214257.449507000,3829
1720214257.449527000,3830
1720214257.449547000,3831
1720214257.449571000,3832
1720214257.449590000,3833
1720214257.470463000,3834
1720214257.470499000,3835
1720214257.470527000,3837
1720214257.470610000,3841
1720214257.491602000,3845
1720214257.491635000,3846
1720214257.491669000,3848
1720214257.491725000,3852
1720214257.491765000,3855
1720214257.510880000,3857
1720214257.510914000,3858
1720214257.510947000,3860
1720214257.510990000,3864
1720214257.511021000,3867
1720214257.532825000,3870
1720214257.532861000,3871
1720214257.532896000,3873
1720214257.532934000,3877
1720214257.532971000,3880
1720214257.533031000,3884
1720214257.560393000,3885
1720214257.560425000,3886
1720214257.560458000,3888
1720214257.560498000,3892
1720214257.560524000,3893
1720214257.560549000,3895
1720214257.560575000,3896
1720214257.560603000,3898
1720214257.576075000,3900
1720214257.576114000,3901
1720214257.576147000,3903
1720214257.576172000,3905
1720214257.576195000,3907
1720214257.576225000,3910
1720214257.576249000,3912
1720214257.592583000,3914
1720214257.592621000,3915
1720214257.592649000,3917
1720214257.592701000,3921
1720214257.592727000,3923
1720214257.592752000,3926
1720214257.592773000,3928
1720214257.609170000,3929
1720214257.609205000,3930
1720214257.609232000,3932
1720214257.609273000,3936
1720214257.609298000,3938
1720214257.609327000,3941
1720214257.609355000,3944
1720214257.637178000,3945
1720214257.637216000,3946
1720214257.637252000,3948
1720214257.637292000,3952
1720214257.637337000,3957
1720214257.654528000,3960
1720214257.654567000,3961
1720214257.654616000,3963
1720214257.669244000,3964
1720214257.669276000,3965
1720214257.684227000,3967
1720214257.684265000,3968
1720214257.684292000,3970
1720214257.684329000,3974
1720214257.684351000,3978
1720214257.684367000,3979
1720214257.684387000,3981
1720214257.684405000,3982
1720214257.684433000,3984
1720214257.684459000,3987
1720214257.684484000,3989
1720214257.684503000,3990
1720214257.684530000,3992
1720214257.684554000,3994
1720214257.684577000,3996
1720214257.684605000,3999
1720214257.684634000,4002
1720214257.684660000,4005
1720214257.699234000,4009
1720214257.699309000,4010
1720214257.713288000,4011
1720214257.727574000,4012
1720214257.742122000,4013
1720214257.756804000,4014
1720214257.783117000,4015
1720214257.799144000,4016
1720214257.813571000,4017
1720214257.828566000,4018
1720214257.843532000,4019
1720214257.858273000,4020
1720214257.874138000,4021
1720214257.874189000,4022
1720214257.874228000,4024
1720214257.874261000,4026
1720214257.874284000,4027
1720214257.874304000,4028
1720214257.874336000,4030
1720214257.874359000,4031
1720214257.874385000,4033
1720214257.874407000,4034
1720214257.874428000,4035
1720214257.874457000,4036
1720214257.874481000,4038
1720214257.874504000,4039
1720214257.874525000,4040
1720214257.874546000,4041
1720214257.874575000,4042
1720214257.874600000,4043
1720214257.874624000,4044
1720214257.874644000,4045
1720214257.874668000,4046
1720214257.874702000,4047
1720214257.874728000,4048
1720214257.874752000,4049
1720214257.874774000,4050
1720214257.874795000,4051
1720214257.874823000,4052
