time,id
1720287252.948827000,1894
1720287252.948899000,1895
1720287252.963057000,1896
1720287252.963159000,1897
1720287252.977428000,1898
1720287252.977501000,1899
1720287252.991706000,1900
1720287252.991774000,1901
1720287253.008411000,1902
1720287253.008470000,1903
1720287253.028445000,1904
1720287253.028500000,1905
1720287253.045168000,1906
1720287253.045241000,1907
1720287253.059581000,1908
1720287253.059661000,1909
1720287253.079572000,1910
1720287253.079608000,1911
1720287253.079638000,1912
1720287253.079660000,1914
1720287253.079912000,1915
1720287253.080672000,1916
1720287253.080682000,1918
1720287253.080704000,1920
1720287253.080715000,1922
1720287253.080727000,1924
1720287253.080734000,1926
1720287253.080758000,1928
1720287253.080766000,1930
1720287253.080798000,1932
1720287253.081729000,1934
1720287253.081796000,1937
1720287253.081806000,1938
1720287253.081822000,1942
1720287253.081827000,1944
1720287253.094317000,1946
1720287253.094423000,1947
1720287253.108647000,1948
1720287253.108747000,1949
1720287253.128725000,1950
1720287253.128803000,1951
1720287253.153482000,1952
1720287253.153573000,1953
1720287253.168765000,1954
1720287253.168837000,1955
1720287253.182644000,1956
1720287253.182714000,1957
1720287253.196683000,1958
1720287253.196754000,1959
1720287253.210688000,1960
1720287253.210778000,1961
1720287253.224660000,1962
1720287253.224761000,1963
1720287253.238633000,1964
1720287253.238729000,1965
1720287253.252522000,1966
1720287253.252610000,1967
1720287253.267165000,1968
1720287253.267199000,1969
1720287253.267228000,1971
1720287253.267276000,1975
1720287253.267314000,1979
1720287253.267362000,1983
1720287253.267396000,1987
1720287253.267432000,1991
1720287253.267460000,1994
1720287253.267492000,1998
1720287253.269117000,2002
1720287253.281389000,2004
1720287253.281462000,2005
1720287253.295632000,2006
1720287253.295702000,2007
1720287253.309948000,2008
1720287253.310021000,2009
1720287253.324412000,2010
1720287253.324500000,2011
1720287253.349063000,2012
1720287253.349139000,2013
1720287253.363331000,2014
1720287253.381079000,2015
1720287253.381163000,2016
1720287253.400843000,2017
1720287253.419022000,2018
1720287253.433729000,2019
1720287253.451490000,2020
1720287253.469599000,2021
1720287253.469632000,2022
1720287253.469661000,2024
1720287253.469699000,2028
1720287253.469738000,2033
1720287253.469774000,2037
1720287253.469804000,2041
1720287253.469828000,2044
1720287253.469865000,2048
1720287253.469898000,2052
1720287253.484193000,2056
1720287253.498427000,2057
1720287253.513258000,2058
1720287253.529046000,2059
1720287253.543057000,2060
1720287253.557104000,2061
1720287253.599749000,2062
1720287253.599820000,2063
1720287253.611096000,2064
1720287253.628958000,2065
1720287253.642912000,2066
1720287253.657623000,2067
1720287253.657656000,2068
1720287253.657685000,2070
1720287253.657732000,2074
1720287253.657763000,2077
1720287253.657793000,2080
1720287253.657818000,2083
1720287253.657844000,2086
1720287253.657870000,2088
1720287253.657893000,2089
1720287253.657913000,2090
1720287253.657940000,2092
1720287253.657959000,2093
1720287253.657985000,2095
1720287253.658073000,2098
1720287253.693386000,2103
1720287253.715940000,2104
1720287253.730262000,2105
1720287253.749533000,2106
1720287253.763833000,2107
1720287253.778005000,2108
1720287253.795133000,2109
1720287253.812371000,2110
1720287253.827701000,2111
1720287253.841661000,2112
1720287253.858984000,2113
1720287253.875807000,2114
1720287253.875844000,2115
1720287253.875873000,2117
1720287253.875908000,2121
1720287253.875938000,2126
1720287253.875980000,2130
1720287253.876016000,2134
1720287253.876047000,2137
1720287253.876084000,2141
1720287253.876121000,2145
1720287253.890844000,2149
1720287253.904848000,2150
1720287253.921659000,2151
1720287253.936942000,2152
1720287253.950928000,2153
1720287253.991778000,2154
1720287253.991871000,2155
1720287253.998623000,2156
1720287254.019638000,2157
1720287254.038953000,2158
1720287254.052983000,2159
1720287254.067776000,2160
1720287254.067816000,2161
1720287254.067858000,2163
1720287254.067905000,2167
1720287254.067958000,2172
1720287254.068005000,2176
1720287254.068048000,2181
1720287254.068090000,2184
1720287254.068133000,2188
1720287254.068176000,2192
1720287254.087152000,2195
1720287254.101095000,2196
1720287254.115297000,2197
1720287254.129505000,2198
1720287254.171768000,2199
1720287254.171798000,2200
1720287254.179790000,2201
1720287254.199020000,2202
1720287254.199116000,2203
1720287254.214118000,2204
1720287254.214207000,2205
1720287254.232766000,2206
1720287254.232824000,2207
1720287254.251759000,2208
1720287254.251850000,2209
1720287254.275815000,2210
1720287254.275866000,2211
1720287254.275903000,2213
1720287254.275937000,2215
1720287254.275965000,2216
1720287254.275994000,2218
1720287254.276017000,2219
1720287254.276045000,2221
1720287254.276065000,2222
1720287254.276093000,2224
1720287254.276112000,2225
1720287254.276144000,2227
1720287254.276171000,2229
1720287254.276204000,2232
1720287254.276225000,2233
1720287254.276253000,2235
1720287254.276273000,2236
1720287254.276300000,2238
1720287254.276321000,2239
1720287254.276361000,2241
1720287254.276390000,2242
1720287254.276417000,2244
1720287254.296542000,2245
1720287254.296656000,2246
1720287254.315443000,2247
1720287254.315552000,2248
1720287254.336059000,2249
1720287254.336124000,2250
1720287254.357128000,2251
1720287254.357209000,2252
1720287254.378457000,2253
1720287254.378540000,2254
1720287254.401240000,2255
1720287254.401351000,2256
1720287254.424688000,2257
1720287254.424767000,2258
1720287254.443476000,2259
1720287254.443555000,2260
1720287254.462381000,2261
1720287254.462458000,2262
1720287254.480811000,2263
1720287254.480904000,2264
1720287254.503630000,2265
1720287254.503722000,2266
1720287254.524535000,2267
1720287254.524580000,2268
1720287254.524620000,2270
1720287254.524665000,2274
1720287254.524702000,2277
1720287254.524734000,2280
1720287254.524767000,2283
1720287254.524799000,2287
1720287254.524829000,2289
1720287254.524858000,2290
1720287254.524884000,2291
1720287254.524913000,2293
1720287254.524934000,2294
1720287254.524962000,2296
1720287254.524983000,2297
1720287254.525012000,2299
1720287254.525034000,2300
1720287254.525066000,2302
1720287254.544713000,2303
1720287254.544759000,2304
1720287254.544793000,2306
1720287254.544839000,2310
1720287254.562201000,2311
1720287254.562240000,2312
1720287254.562269000,2314
1720287254.562317000,2318
1720287254.582044000,2321
1720287254.582081000,2322
1720287254.582110000,2324
1720287254.582144000,2328
1720287254.600937000,2333
1720287254.600970000,2334
1720287254.600998000,2336
1720287254.601026000,2340
1720287254.601053000,2342
1720287254.601079000,2345
1720287254.618911000,2346
1720287254.618943000,2347
1720287254.618975000,2349
1720287254.619004000,2352
1720287254.619028000,2356
1720287254.619050000,2358
1720287254.638596000,2359
1720287254.638630000,2360
1720287254.638659000,2362
1720287254.638695000,2366
1720287254.638729000,2371
1720287254.653503000,2372
1720287254.653533000,2373
1720287254.653563000,2375
1720287254.653587000,2377
1720287254.653617000,2380
1720287254.653648000,2384
1720287254.668441000,2385
1720287254.668472000,2386
1720287254.668501000,2388
1720287254.668524000,2390
1720287254.668555000,2393
1720287254.668585000,2397
1720287254.689036000,2398
1720287254.689069000,2399
1720287254.689098000,2401
1720287254.689126000,2405
1720287254.689153000,2410
1720287254.712217000,2411
1720287254.712253000,2412
1720287254.712282000,2414
1720287254.712316000,2418
1720287254.712353000,2421
1720287254.712392000,2424
1720287254.732749000,2425
1720287254.732792000,2426
1720287254.732840000,2428
1720287254.752729000,2431
1720287254.752772000,2432
1720287254.752808000,2434
1720287254.752855000,2438
1720287254.752895000,2443
1720287254.752929000,2446
1720287254.752964000,2450
1720287254.752997000,2453
1720287254.753029000,2456
1720287254.753063000,2460
1720287254.776764000,2462
1720287254.776806000,2463
1720287254.776843000,2465
1720287254.776888000,2469
1720287254.795052000,2473
1720287254.795100000,2474
1720287254.795139000,2476
1720287254.795174000,2478
1720287254.795212000,2481
1720287254.795243000,2484
1720287254.810315000,2485
1720287254.810373000,2486
1720287254.810416000,2488
1720287254.810459000,2491
1720287254.810501000,2495
1720287254.827652000,2497
1720287254.827721000,2498
1720287254.827751000,2500
1720287254.827777000,2501
1720287254.827805000,2502
1720287254.827829000,2503
1720287254.827849000,2504
1720287254.827874000,2506
1720287254.827899000,2507
1720287254.827922000,2508
1720287254.842664000,2509
1720287254.842698000,2510
1720287254.842733000,2512
1720287254.842765000,2514
1720287254.842792000,2516
1720287254.842827000,2519
1720287254.842853000,2521
1720287254.859133000,2522
1720287254.859167000,2523
1720287254.859196000,2525
1720287254.859240000,2529
1720287254.859273000,2531
1720287254.874491000,2534
1720287254.874536000,2535
1720287254.874575000,2537
1720287254.874608000,2539
1720287254.874648000,2542
1720287254.874682000,2545
1720287254.890443000,2546
1720287254.890489000,2547
1720287254.890531000,2549
1720287254.890579000,2553
1720287254.890618000,2557
1720287254.905740000,2559
1720287254.905784000,2560
1720287254.905827000,2562
1720287254.905863000,2564
1720287254.905898000,2567
1720287254.905927000,2569
1720287254.921933000,2572
1720287254.921981000,2573
1720287254.922014000,2575
1720287254.922034000,2576
1720287254.922069000,2577
1720287254.922102000,2579
1720287254.922133000,2581
1720287254.922155000,2582
1720287254.922183000,2584
1720287254.937256000,2585
1720287254.937301000,2586
1720287254.937353000,2588
1720287254.937399000,2591
1720287254.937453000,2595
1720287254.937480000,2596
1720287254.952162000,2597
1720287254.952210000,2598
1720287254.952250000,2600
1720287254.952288000,2603
1720287254.952317000,2605
1720287254.952359000,2607
1720287254.952405000,2610
1720287254.952445000,2613
1720287254.952479000,2617
1720287254.952510000,2618
1720287254.952557000,2620
1720287254.968042000,2621
1720287254.968084000,2622
1720287254.968134000,2624
1720287254.983295000,2628
1720287254.983351000,2629
1720287254.983386000,2631
1720287254.983428000,2634
1720287254.983460000,2637
1720287254.998647000,2639
1720287254.998686000,2640
1720287254.998715000,2642
1720287254.998760000,2646
1720287255.013961000,2650
1720287255.014000000,2651
1720287255.014029000,2653
1720287255.014061000,2657
1720287255.014079000,2659
1720287255.014101000,2660
1720287255.014135000,2662
1720287255.029659000,2663
1720287255.029705000,2664
1720287255.029736000,2666
1720287255.029771000,2668
1720287255.029807000,2671
1720287255.029847000,2674
1720287255.045839000,2675
1720287255.045892000,2676
1720287255.045939000,2678
1720287255.045994000,2682
1720287255.046044000,2685
1720287255.061648000,2687
1720287255.061683000,2688
1720287255.061712000,2690
1720287255.061753000,2694
1720287255.061785000,2698
1720287255.077540000,2699
1720287255.077582000,2700
1720287255.077618000,2702
1720287255.077664000,2706
1720287255.092624000,2711
1720287255.092658000,2712
1720287255.092687000,2714
1720287255.092718000,2718
1720287255.092740000,2721
1720287255.092772000,2722
1720287255.108884000,2726
1720287255.108919000,2727
1720287255.108948000,2729
1720287255.108986000,2733
1720287255.123954000,2736
1720287255.123988000,2737
1720287255.124016000,2739
1720287255.124040000,2743
1720287255.124066000,2745
1720287255.124106000,2748
1720287255.145955000,2749
1720287255.145989000,2750
1720287255.146017000,2752
1720287255.146053000,2756
1720287255.167905000,2761
1720287255.167972000,2762
1720287255.168013000,2764
1720287255.168043000,2765
1720287255.168084000,2767
1720287255.168127000,2770
1720287255.184992000,2772
1720287255.185025000,2773
1720287255.185054000,2775
1720287255.185096000,2779
1720287255.205872000,2781
1720287255.205906000,2782
1720287255.205935000,2784
1720287255.222408000,2788
1720287255.222441000,2789
1720287255.222519000,2791
1720287255.240879000,2795
1720287255.259427000,2796
1720287255.277761000,2797
1720287255.296834000,2798
1720287255.315374000,2799
1720287255.338890000,2800
1720287255.357210000,2801
1720287255.380209000,2802
1720287255.402605000,2803
1720287255.419993000,2804
1720287255.443112000,2805
1720287255.463304000,2806
1720287255.463354000,2807
1720287255.463384000,2809
1720287255.463432000,2813
1720287255.483645000,2814
1720287255.483680000,2815
1720287255.483711000,2817
1720287255.483745000,2821
1720287255.501622000,2823
1720287255.501673000,2824
1720287255.501725000,2826
1720287255.501770000,2829
1720287255.501813000,2833
1720287255.523624000,2834
1720287255.523675000,2835
1720287255.523713000,2837
1720287255.523742000,2838
1720287255.523773000,2840
1720287255.523814000,2843
1720287255.543450000,2845
1720287255.543484000,2846
1720287255.543532000,2848
1720287255.543568000,2852
1720287255.570274000,2857
1720287255.570311000,2858
1720287255.570350000,2860
1720287255.570393000,2864
1720287255.570422000,2867
1720287255.590429000,2870
1720287255.590479000,2871
1720287255.590509000,2873
1720287255.590543000,2874
1720287255.590566000,2875
1720287255.590588000,2876
1720287255.590615000,2878
1720287255.590640000,2879
1720287255.590665000,2880
1720287255.590690000,2881
1720287255.590711000,2882
1720287255.610868000,2883
1720287255.610911000,2884
1720287255.610952000,2886
1720287255.611001000,2890
1720287255.611043000,2893
1720287255.611078000,2895
1720287255.632457000,2896
1720287255.632505000,2897
1720287255.632534000,2899
1720287255.632562000,2903
1720287255.632582000,2904
1720287255.632601000,2906
1720287255.632616000,2907
1720287255.632634000,2909
1720287255.654106000,2910
1720287255.654138000,2911
1720287255.654167000,2913
1720287255.654205000,2917
1720287255.654233000,2920
1720287255.680427000,2923
1720287255.680482000,2924
1720287255.680513000,2926
1720287255.680537000,2927
1720287255.680566000,2928
1720287255.680597000,2929
1720287255.680626000,2931
1720287255.680650000,2932
1720287255.680674000,2934
1720287255.680696000,2935
1720287255.680719000,2936
1720287255.700566000,2937
1720287255.700611000,2938
1720287255.700649000,2940
1720287255.700688000,2944
1720287255.700724000,2947
1720287255.700759000,2949
1720287255.715985000,2951
1720287255.716017000,2952
1720287255.716045000,2954
1720287255.716084000,2958
1720287255.716127000,2963
1720287255.731649000,2966
1720287255.731683000,2967
1720287255.731712000,2969
1720287255.731748000,2973
1720287255.731791000,2978
1720287255.747272000,2980
1720287255.747303000,2981
1720287255.747333000,2983
1720287255.747374000,2987
1720287255.747410000,2992
1720287255.747450000,2997
1720287255.747487000,3001
1720287255.747541000,3005
1720287255.747582000,3009
1720287255.763408000,3012
1720287255.763460000,3013
1720287255.763500000,3015
1720287255.763547000,3018
1720287255.763579000,3019
1720287255.763622000,3021
1720287255.779138000,3023
1720287255.779182000,3024
1720287255.779219000,3026
1720287255.779252000,3028
1720287255.779297000,3031
1720287255.779349000,3034
1720287255.794901000,3035
1720287255.794944000,3036
1720287255.794992000,3038
1720287255.795043000,3042
1720287255.795084000,3046
1720287255.810617000,3048
1720287255.810658000,3049
1720287255.810701000,3051
1720287255.810745000,3055
1720287255.810780000,3058
1720287255.810808000,3061
1720287255.826598000,3063
1720287255.826648000,3064
1720287255.826679000,3066
1720287255.826718000,3068
1720287255.826754000,3070
1720287255.826798000,3073
1720287255.826836000,3077
1720287255.842492000,3078
1720287255.842542000,3079
1720287255.842574000,3081
1720287255.842605000,3083
1720287255.842639000,3085
1720287255.842665000,3086
1720287255.842702000,3088
1720287255.842736000,3091
1720287255.858956000,3092
1720287255.859000000,3093
1720287255.859035000,3095
1720287255.859065000,3098
1720287255.859099000,3102
1720287255.875024000,3107
1720287255.875201000,3108
1720287255.875234000,3109
1720287255.875282000,3111
1720287255.875318000,3113
1720287255.875382000,3116
1720287255.875967000,3120
1720287255.892525000,3123
1720287255.892573000,3124
1720287255.892625000,3126
1720287255.892660000,3129
1720287255.892695000,3133
1720287255.907245000,3138
1720287255.907279000,3139
1720287255.907320000,3141
1720287255.922538000,3142
1720287255.922585000,3143
1720287255.938742000,3145
1720287255.938791000,3146
1720287255.938834000,3148
1720287255.938868000,3150
1720287255.938901000,3152
1720287255.938935000,3153
1720287255.938969000,3155
1720287255.939000000,3157
1720287255.939051000,3160
1720287255.939091000,3164
1720287255.939129000,3167
1720287255.939162000,3170
1720287255.939202000,3174
1720287255.939241000,3179
1720287255.939279000,3184
1720287255.953910000,3187
1720287255.953985000,3188
1720287255.968738000,3189
1720287255.983226000,3190
1720287255.998092000,3191
1720287256.012090000,3192
1720287256.027045000,3193
1720287256.041760000,3194
1720287256.057202000,3195
1720287256.072581000,3196
1720287256.088034000,3197
1720287256.103528000,3198
1720287256.120241000,3199
1720287256.120285000,3200
1720287256.120310000,3202
1720287256.120353000,3205
1720287256.120394000,3209
1720287256.120427000,3212
1720287256.120458000,3216
1720287256.120488000,3219
1720287256.120510000,3221
1720287256.120541000,3224
1720287256.120571000,3228
1720287256.120597000,3231
1720287256.120626000,3235
1720287256.120655000,3238
1720287256.136117000,3241
1720287256.136193000,3242
1720287256.152102000,3243
1720287256.152144000,3244
1720287256.167082000,3246
1720287256.167128000,3247
1720287256.167163000,3249
1720287256.181895000,3250
1720287256.181935000,3251
1720287256.196681000,3253
1720287256.196715000,3254
1720287256.196768000,3256
1720287256.211523000,3258
1720287256.211560000,3259
1720287256.211606000,3261
1720287256.226353000,3263
1720287256.226398000,3264
1720287256.226433000,3266
1720287256.226455000,3267
1720287256.226478000,3269
1720287256.241426000,3270
1720287256.241464000,3271
1720287256.241511000,3273
1720287256.256571000,3277
1720287256.256614000,3278
1720287256.256640000,3280
1720287256.256662000,3281
1720287256.256685000,3283
1720287256.256717000,3284
1720287256.272072000,3285
1720287256.272110000,3286
1720287256.272139000,3288
1720287256.272193000,3292
1720287256.286975000,3294
1720287256.287022000,3295
1720287256.287060000,3297
1720287256.287105000,3301
1720287256.303173000,3303
1720287256.303225000,3304
1720287256.303264000,3306
1720287256.303307000,3310
1720287256.303354000,3313
1720287256.303385000,3316
1720287256.303417000,3318
1720287256.303442000,3320
1720287256.303471000,3323
1720287256.303500000,3325
1720287256.303544000,3326
1720287256.303571000,3327
1720287256.303600000,3329
1720287256.303622000,3330
1720287256.303653000,3332
1720287256.303678000,3333
1720287256.303706000,3335
1720287256.303726000,3336
1720287256.303756000,3338
1720287256.303781000,3340
1720287256.303810000,3343
1720287256.318600000,3345
1720287256.318647000,3346
1720287256.318701000,3348
1720287256.333971000,3351
1720287256.334015000,3352
1720287256.334053000,3354
1720287256.334106000,3358
1720287256.349330000,3361
1720287256.349390000,3362
1720287256.349428000,3364
1720287256.349482000,3368
1720287256.364561000,3371
1720287256.364602000,3372
1720287256.364624000,3374
1720287256.364651000,3375
1720287256.364679000,3377
1720287256.364704000,3378
1720287256.364728000,3380
1720287256.364750000,3381
1720287256.379821000,3382
1720287256.379857000,3383
1720287256.379893000,3385
1720287256.379925000,3388
1720287256.379957000,3392
1720287256.394904000,3395
1720287256.394942000,3396
1720287256.394971000,3398
1720287256.395013000,3402
1720287256.409766000,3406
1720287256.409800000,3407
1720287256.409828000,3409
1720287256.409864000,3413
1720287256.409899000,3418
1720287256.424844000,3419
1720287256.424878000,3420
1720287256.424906000,3422
1720287256.424945000,3426
1720287256.424978000,3430
1720287256.440086000,3433
1720287256.440122000,3434
1720287256.440150000,3436
1720287256.440182000,3440
1720287256.440202000,3442
1720287256.440222000,3443
