time,id
1720287717.615981000,3431
1720287717.615982000,3432
1720287717.634638000,3433
1720287717.634639000,3434
1720287717.648888000,3435
1720287717.648889000,3436
1720287717.663170000,3437
1720287717.663171000,3438
1720287717.676848000,3439
1720287717.677369000,3440
1720287717.691131000,3441
1720287717.691132000,3442
1720287717.709201000,3443
1720287717.709202000,3444
1720287717.723994000,3445
1720287717.723996000,3446
1720287717.725095000,3447
1720287717.725656000,3449
1720287717.726770000,3451
1720287717.727349000,3453
1720287717.728517000,3459
1720287717.729132000,3465
1720287717.729747000,3469
1720287717.738731000,3481
1720287717.738732000,3482
1720287717.755678000,3483
1720287717.755679000,3484
1720287717.780321000,3485
1720287717.780322000,3486
1720287717.800631000,3487
1720287717.800632000,3488
1720287717.814374000,3489
1720287717.814375000,3490
1720287717.828633000,3491
1720287717.828634000,3492
1720287717.842409000,3493
1720287717.842410000,3494
1720287717.856143000,3495
1720287717.856662000,3496
1720287717.869984000,3497
1720287717.870499000,3498
1720287717.884387000,3499
1720287717.884388000,3500
1720287717.908195000,3501
1720287717.908196000,3502
1720287717.923208000,3503
1720287717.923209000,3504
1720287717.923279000,3506
1720287717.923284000,3510
1720287717.924060000,3528
1720287717.937534000,3539
1720287717.937535000,3540
1720287717.960008000,3541
1720287717.960009000,3542
1720287717.974782000,3543
1720287717.974783000,3544
1720287717.992802000,3545
1720287717.992803000,3546
1720287718.009244000,3547
1720287718.009244000,3548
1720287718.023104000,3549
1720287718.041036000,3550
1720287718.041037000,3551
1720287718.055241000,3552
1720287718.069494000,3553
1720287718.083870000,3554
1720287718.107967000,3555
1720287718.122947000,3556
1720287718.122949000,3557
1720287718.123030000,3559
1720287718.123503000,3560
1720287718.123536000,3561
1720287718.123555000,3563
1720287718.123644000,3569
1720287718.124256000,3577
1720287718.124286000,3578
1720287718.124288000,3579
1720287718.124331000,3581
1720287718.124888000,3583
1720287718.124919000,3584
1720287718.124923000,3586
1720287718.137663000,3591
1720287718.151844000,3592
1720287718.179001000,3593
1720287718.192459000,3594
1720287718.206080000,3595
1720287718.220287000,3596
1720287718.262305000,3597
1720287718.262306000,3598
1720287718.272715000,3599
1720287718.286406000,3600
1720287718.300599000,3601
1720287718.325316000,3602
1720287718.325318000,3603
1720287718.325860000,3605
1720287718.325984000,3612
1720287718.327316000,3635
1720287718.339924000,3638
1720287718.354331000,3639
1720287718.368096000,3640
1720287718.392585000,3641
1720287718.406330000,3642
1720287718.420621000,3643
1720287718.434292000,3644
1720287718.458988000,3645
1720287718.473202000,3646
1720287718.486944000,3647
1720287718.501208000,3648
1720287718.525805000,3649
1720287718.525807000,3650
1720287718.526351000,3652
1720287718.526406000,3656
1720287718.527275000,3678
1720287718.540602000,3684
1720287718.554971000,3685
1720287718.568827000,3686
1720287718.583240000,3687
1720287718.607036000,3688
1720287718.650247000,3689
1720287718.650759000,3690
1720287718.659173000,3691
1720287718.673136000,3692
1720287718.686927000,3693
1720287718.701109000,3694
1720287718.725857000,3695
1720287718.725859000,3696
1720287718.725863000,3698
1720287718.726512000,3708
1720287718.740465000,3730
1720287718.754138000,3731
1720287718.768313000,3732
1720287718.791874000,3733
1720287718.834539000,3734
1720287718.834540000,3735
1720287718.834540000,3736
1720287718.857651000,3737
1720287718.857652000,3738
1720287718.871299000,3739
1720287718.871300000,3740
1720287718.885043000,3741
1720287718.885044000,3742
1720287718.909336000,3743
1720287718.909337000,3744
1720287718.924858000,3745
1720287718.924860000,3746
1720287718.924862000,3748
1720287718.924868000,3757
1720287718.939554000,3780
1720287718.939554000,3781
1720287718.953441000,3782
1720287718.953442000,3783
1720287718.967809000,3784
1720287718.967810000,3785
1720287718.992181000,3786
1720287718.992182000,3787
1720287719.005987000,3788
1720287719.005988000,3789
1720287719.020285000,3790
1720287719.020286000,3791
1720287719.034604000,3792
1720287719.034605000,3793
1720287719.059489000,3794
1720287719.059490000,3795
1720287719.073796000,3796
1720287719.073797000,3797
1720287719.088692000,3798
1720287719.088692000,3799
1720287719.103098000,3800
1720287719.103099000,3801
1720287719.118598000,3802
1720287719.118599000,3803
1720287719.118650000,3805
1720287719.119302000,3815
1720287719.150621000,3838
1720287719.150622000,3839
1720287719.150624000,3841
1720287719.171127000,3846
1720287719.171128000,3847
1720287719.171131000,3849
1720287719.187279000,3856
1720287719.187281000,3857
1720287719.187284000,3859
1720287719.202235000,3868
1720287719.202237000,3869
1720287719.202765000,3871
1720287719.217822000,3881
1720287719.217824000,3882
1720287719.217826000,3884
1720287719.217828000,3888
1720287719.232888000,3894
1720287719.232889000,3895
1720287719.232891000,3897
1720287719.233521000,3902
1720287719.249067000,3907
1720287719.249069000,3908
1720287719.249071000,3910
1720287719.249131000,3914
1720287719.263565000,3920
1720287719.263567000,3921
1720287719.263571000,3923
1720287719.264239000,3931
1720287719.278636000,3933
1720287719.278637000,3934
1720287719.278641000,3936
1720287719.293648000,3946
1720287719.293649000,3947
1720287719.293653000,3949
1720287719.294307000,3959
1720287719.308167000,3960
1720287719.308168000,3961
1720287719.308169000,3963
1720287719.323138000,3966
1720287719.323140000,3967
1720287719.323150000,3969
1720287719.323231000,3977
1720287719.349366000,3997
1720287719.349368000,3998
1720287719.349371000,4000
1720287719.376291000,4008
1720287719.376293000,4009
1720287719.376296000,4011
1720287719.376365000,4018
1720287719.403788000,4020
1720287719.403789000,4021
1720287719.403791000,4023
1720287719.404373000,4027
1720287719.429121000,4032
1720287719.429123000,4033
1720287719.429746000,4035
1720287719.445126000,4044
1720287719.445128000,4045
1720287719.445132000,4047
1720287719.445797000,4056
1720287719.472322000,4057
1720287719.472324000,4058
1720287719.472327000,4060
1720287719.472891000,4064
1720287719.494026000,4069
1720287719.494027000,4070
1720287719.494031000,4072
1720287719.514097000,4081
1720287719.514098000,4082
1720287719.514101000,4084
1720287719.536961000,4094
1720287719.536963000,4095
1720287719.536968000,4097
1720287719.560933000,4107
1720287719.560935000,4108
1720287719.560938000,4110
1720287719.561562000,4119
1720287719.580329000,4120
1720287719.580331000,4121
1720287719.580882000,4123
1720287719.598114000,4132
1720287719.598116000,4133
1720287719.598117000,4135
1720287719.598183000,4138
1720287719.598841000,4155
1720287719.613192000,4156
1720287719.613193000,4157
1720287719.613195000,4159
1720287719.628704000,4163
1720287719.628706000,4164
1720287719.628707000,4166
1720287719.628709000,4169
1720287719.644887000,4174
1720287719.644888000,4175
1720287719.644890000,4177
1720287719.644892000,4181
1720287719.660488000,4185
1720287719.660490000,4186
1720287719.660491000,4188
1720287719.660538000,4191
1720287719.679950000,4198
1720287719.679952000,4199
1720287719.680495000,4201
1720287719.680534000,4207
1720287719.696111000,4210
1720287719.696112000,4211
1720287719.696116000,4213
1720287719.712273000,4222
1720287719.712275000,4223
1720287719.712276000,4225
1720287719.712345000,4230
1720287719.733009000,4234
1720287719.733011000,4235
1720287719.733013000,4237
1720287719.750833000,4246
1720287719.750835000,4247
1720287719.750837000,4249
1720287719.751444000,4256
1720287719.769157000,4261
1720287719.769158000,4262
1720287719.769713000,4264
1720287719.769749000,4269
1720287719.787306000,4271
1720287719.787308000,4272
1720287719.787310000,4274
1720287719.787360000,4279
1720287719.802205000,4284
1720287719.802206000,4285
1720287719.802208000,4287
1720287719.802797000,4291
1720287719.817120000,4296
1720287719.817121000,4297
1720287719.817125000,4299
1720287719.832570000,4307
1720287719.832572000,4308
1720287719.832585000,4310
1720287719.850226000,4316
1720287719.850228000,4317
1720287719.850229000,4319
1720287719.850288000,4321
1720287719.868341000,4323
1720287719.868343000,4324
1720287719.868347000,4326
1720287719.884361000,4330
1720287719.900367000,4331
1720287719.915648000,4332
1720287719.932017000,4333
1720287719.947827000,4334
1720287719.964197000,4335
1720287719.978919000,4336
1720287719.994722000,4337
1720287720.012172000,4338
1720287720.029109000,4339
1720287720.043309000,4340
1720287720.058595000,4341
1720287720.059119000,4342
1720287720.059120000,4343
1720287720.059152000,4345
1720287720.059177000,4347
1720287720.075649000,4349
1720287720.075650000,4350
1720287720.075651000,4352
1720287720.075653000,4354
1720287720.097039000,4358
1720287720.097040000,4359
1720287720.097042000,4361
1720287720.117488000,4369
1720287720.117490000,4370
1720287720.117492000,4372
1720287720.118054000,4376
1720287720.133008000,4380
1720287720.133010000,4381
1720287720.133556000,4383
1720287720.149603000,4392
1720287720.149604000,4393
1720287720.149606000,4395
1720287720.149665000,4400
1720287720.165115000,4405
1720287720.165118000,4406
1720287720.165167000,4408
1720287720.180649000,4418
1720287720.180650000,4419
1720287720.180652000,4421
1720287720.181258000,4425
1720287720.196311000,4431
1720287720.196313000,4432
1720287720.196315000,4434
1720287720.196864000,4439
1720287720.211879000,4445
1720287720.211881000,4446
1720287720.211882000,4448
1720287720.212484000,4451
1720287720.228074000,4458
1720287720.228078000,4459
1720287720.228079000,4461
1720287720.228080000,4462
1720287720.228173000,4463
1720287720.228174000,4464
1720287720.228174000,4465
1720287720.228176000,4466
1720287720.228178000,4468
1720287720.243754000,4472
1720287720.243756000,4473
1720287720.243757000,4475
1720287720.243758000,4476
1720287720.244304000,4477
1720287720.244339000,4478
1720287720.244340000,4479
1720287720.244341000,4480
1720287720.244391000,4481
1720287720.244392000,4482
1720287720.244401000,4483
1720287720.244402000,4484
1720287720.244403000,4485
1720287720.259928000,4486
1720287720.259939000,4487
1720287720.259942000,4489
1720287720.260528000,4495
1720287720.276086000,4501
1720287720.276088000,4502
1720287720.276090000,4504
1720287720.276170000,4509
1720287720.291715000,4515
1720287720.291718000,4516
1720287720.291721000,4518
1720287720.292412000,4527
1720287720.313112000,4547
1720287720.313114000,4548
1720287720.313116000,4550
1720287720.313175000,4557
1720287720.336374000,4558
1720287720.336376000,4559
1720287720.336378000,4561
1720287720.336461000,4569
1720287720.352434000,4570
1720287720.352435000,4571
1720287720.352437000,4573
1720287720.352501000,4578
1720287720.371416000,4583
1720287720.371418000,4584
1720287720.371419000,4586
1720287720.371490000,4589
1720287720.399222000,4598
1720287720.399224000,4599
1720287720.399226000,4601
1720287720.399284000,4607
1720287720.415469000,4613
1720287720.415470000,4614
1720287720.415472000,4616
1720287720.416061000,4622
1720287720.434369000,4627
1720287720.434371000,4628
1720287720.434964000,4630
1720287720.434991000,4636
1720287720.450573000,4642
1720287720.450575000,4643
1720287720.450580000,4645
1720287720.450670000,4655
1720287720.466216000,4658
1720287720.466219000,4659
1720287720.466233000,4661
1720287720.466886000,4672
1720287720.481233000,4673
1720287720.481234000,4674
1720287720.481235000,4676
1720287720.496685000,4677
1720287720.496687000,4678
1720287720.513296000,4680
1720287720.513298000,4681
1720287720.513300000,4683
1720287720.513863000,4687
1720287720.514690000,4710
1720287720.528185000,4722
1720287720.528186000,4723
1720287720.544289000,4724
1720287720.560893000,4725
1720287720.577536000,4726
1720287720.593589000,4727
1720287720.610759000,4728
1720287720.624933000,4729
1720287720.642477000,4730
1720287720.663566000,4731
1720287720.678580000,4732
1720287720.694574000,4733
1720287720.711154000,4734
1720287720.711155000,4735
1720287720.711157000,4737
1720287720.711823000,4743
1720287720.713202000,4766
1720287720.726668000,4776
1720287720.727262000,4777
1720287720.742197000,4778
1720287720.742199000,4779
1720287720.757544000,4781
1720287720.757546000,4782
1720287720.757547000,4784
1720287720.776919000,4785
1720287720.776921000,4786
1720287720.791743000,4788
1720287720.791746000,4789
1720287720.791747000,4791
1720287720.806054000,4793
1720287720.806056000,4794
1720287720.806057000,4796
1720287720.821482000,4798
1720287720.821484000,4799
1720287720.821485000,4801
1720287720.840456000,4805
1720287720.840458000,4806
1720287720.840978000,4808
1720287720.840978000,4811
1720287720.855497000,4812
1720287720.855499000,4813
1720287720.855501000,4815
1720287720.855569000,4819
1720287720.870488000,4820
1720287720.870490000,4821
1720287720.870492000,4823
1720287720.887194000,4829
1720287720.887694000,4830
1720287720.887714000,4832
1720287720.887746000,4835
1720287720.906688000,4838
1720287720.906698000,4839
1720287720.906700000,4841
1720287720.906767000,4843
1720287720.907475000,4853
1720287720.908813000,4876
1720287720.933263000,4880
1720287720.933265000,4881
1720287720.933266000,4883
1720287720.958251000,4886
1720287720.958252000,4887
1720287720.958253000,4889
1720287720.958254000,4891
1720287720.973275000,4896
1720287720.973277000,4897
1720287720.973279000,4899
1720287720.973861000,4904
1720287720.987781000,4906
1720287720.987783000,4907
1720287720.987785000,4909
1720287720.988374000,4913
1720287721.002840000,4917
1720287721.002842000,4918
1720287721.002843000,4920
1720287721.002904000,4924
1720287721.017749000,4930
1720287721.017750000,4931
1720287721.017752000,4933
1720287721.017755000,4935
1720287721.032676000,4941
1720287721.032678000,4942
1720287721.032679000,4944
1720287721.032681000,4946
1720287721.033285000,4952
1720287721.047671000,4954
1720287721.047673000,4955
1720287721.047675000,4957
1720287721.047754000,4961
1720287721.062681000,4968
1720287721.062683000,4969
1720287721.062684000,4971
1720287721.062685000,4972
1720287721.062685000,4973
1720287721.062686000,4974
1720287721.062746000,4975
1720287721.062747000,4976
1720287721.063309000,4977
1720287721.063310000,4978
1720287721.063325000,4979
1720287721.063326000,4980
1720287721.063351000,4981
1720287721.089759000,4982
1720287721.089761000,4983
1720287721.089765000,4985
1720287721.110940000,4996
1720287721.110942000,4997
1720287721.110944000,4999
1720287721.111031000,5003
1720287721.125628000,5010
1720287721.126730000,5011
1720287721.126742000,5012
1720287721.126794000,5014
1720287721.126903000,5023
1720287721.128325000,5046
1720287721.141213000,5052
1720287721.141215000,5053
1720287721.141816000,5055
1720287721.156458000,5064
1720287721.156459000,5065
1720287721.156463000,5067
1720287721.157164000,5077
1720287721.172343000,5079
1720287721.172345000,5080
1720287721.172348000,5082
1720287721.172448000,5091
1720287721.188635000,5094
1720287721.188637000,5095
1720287721.189197000,5097
1720287721.189296000,5106
1720287721.203997000,5109
1720287721.204000000,5110
1720287721.204010000,5112
1720287721.204616000,5122
1720287721.218522000,5124
1720287721.218524000,5125
1720287721.218585000,5127
1720287721.219136000,5134
1720287721.233526000,5139
1720287721.233528000,5140
1720287721.233533000,5142
1720287721.234193000,5153
1720287721.249176000,5154
1720287721.249178000,5155
1720287721.249181000,5157
1720287721.249812000,5163
1720287721.264478000,5168
1720287721.264479000,5169
1720287721.264481000,5171
1720287721.264538000,5174
1720287721.279747000,5183
1720287721.279749000,5184
1720287721.279758000,5186
1720287721.279763000,5189
1720287721.294987000,5198
1720287721.294989000,5199
1720287721.294990000,5201
1720287721.295062000,5204
1720287721.310698000,5214
1720287721.310700000,5215
1720287721.310701000,5217
1720287721.310772000,5220
1720287721.311497000,5233
1720287721.326695000,5257
1720287721.326697000,5258
1720287721.326699000,5260
1720287721.326767000,5264
1720287721.341952000,5274
1720287721.341954000,5275
1720287721.341956000,5277
1720287721.342537000,5280
1720287721.357663000,5289
1720287721.357664000,5290
1720287721.357665000,5292
1720287721.357665000,5293
1720287721.357746000,5294
1720287721.357749000,5296
1720287721.372149000,5304
1720287721.372151000,5305
1720287721.372700000,5307
1720287721.372809000,5315
1720287721.387843000,5321
1720287721.387845000,5322
1720287721.387847000,5324
1720287721.387914000,5329
1720287721.402591000,5338
1720287721.402592000,5339
1720287721.402595000,5341
1720287721.403271000,5350
1720287721.417895000,5356
1720287721.417896000,5357
1720287721.417908000,5359
1720287721.418531000,5364
1720287721.433761000,5373
1720287721.433762000,5374
1720287721.433763000,5376
1720287721.433834000,5378
1720287721.434485000,5387
1720287721.450215000,5390
1720287721.450216000,5391
1720287721.450217000,5393
1720287721.450819000,5394
1720287721.450820000,5395
1720287721.450852000,5396
1720287721.450854000,5397
1720287721.451456000,5399
1720287721.451484000,5403
1720287721.451533000,5405
1720287721.465465000,5408
1720287721.465466000,5409
1720287721.465468000,5411
1720287721.465529000,5415
1720287721.480748000,5425
1720287721.480749000,5426
1720287721.480752000,5428
1720287721.481362000,5432
1720287721.496580000,5443
1720287721.496581000,5444
1720287721.496583000,5446
1720287721.497154000,5451
1720287721.497976000,5474
1720287721.512437000,5486
1720287721.512438000,5487
1720287721.512497000,5489
1720287721.513113000,5498
1720287721.527438000,5503
1720287721.527439000,5504
1720287721.527977000,5506
1720287721.528032000,5512
1720287721.542499000,5520
1720287721.542500000,5521
1720287721.542502000,5523
1720287721.543079000,5528
1720287721.558096000,5537
1720287721.558098000,5538
1720287721.558100000,5540
1720287721.558715000,5547
1720287721.573724000,5554
1720287721.573726000,5555
1720287721.573729000,5557
1720287721.574348000,5566
1720287721.588227000,5571
1720287721.588229000,5572
1720287721.588231000,5574
1720287721.588867000,5582
1720287721.603867000,5589
1720287721.603869000,5590
1720287721.604455000,5592
1720287721.604468000,5598
1720287721.619461000,5606
1720287721.619463000,5607
1720287721.619467000,5609
1720287721.620079000,5616
1720287721.634549000,5623
1720287721.634551000,5624
1720287721.634555000,5626
1720287721.635181000,5635
1720287721.650202000,5641
1720287721.650204000,5642
1720287721.650206000,5644
1720287721.650210000,5648
1720287721.665737000,5658
1720287721.665739000,5659
1720287721.665741000,5661
1720287721.665845000,5665
1720287721.680818000,5675
1720287721.680820000,5676
1720287721.680822000,5678
1720287721.681468000,5682
1720287721.682312000,5705
1720287721.698696000,5719
1720287721.698697000,5720
1720287721.698700000,5722
1720287721.698776000,5726
1720287721.715105000,5735
1720287721.715149000,5736
1720287721.715150000,5738
1720287721.715151000,5739
1720287721.715198000,5741
1720287721.715799000,5747
1720287721.730348000,5752
1720287721.730350000,5753
1720287721.730352000,5755
1720287721.730406000,5759
1720287721.746005000,5770
1720287721.746509000,5771
1720287721.746510000,5772
1720287721.746551000,5774
1720287721.747136000,5777
1720287721.762097000,5787
1720287721.762099000,5788
1720287721.762101000,5790
1720287721.762149000,5794
1720287721.789663000,5804
1720287721.789664000,5805
1720287721.789667000,5807
1720287721.793372000,5811
1720287721.816301000,5822
1720287721.816303000,5823
1720287721.816360000,5825
1720287721.816962000,5833
1720287721.835408000,5839
1720287721.835409000,5840
1720287721.835475000,5842
1720287721.836044000,5849
1720287721.851176000,5857
1720287721.851177000,5858
1720287721.851178000,5860
1720287721.851179000,5861
1720287721.851182000,5863
1720287721.851856000,5871
1720287721.866279000,5876
1720287721.866281000,5877
1720287721.866330000,5879
1720287721.866884000,5881
1720287721.867018000,5891
1720287721.881517000,5894
1720287721.881519000,5895
1720287721.881573000,5897
1720287721.882174000,5905
1720287721.897884000,5912
1720287721.897885000,5913
1720287721.897887000,5915
1720287721.897950000,5919
