time,id
1720287375.954225000,4066
1720287375.954226000,4067
1720287375.969020000,4068
1720287375.969021000,4069
1720287375.982911000,4070
1720287375.982912000,4071
1720287376.007396000,4072
1720287376.007925000,4073
1720287376.022190000,4074
1720287376.022704000,4075
1720287376.036453000,4076
1720287376.036454000,4077
1720287376.062139000,4078
1720287376.062140000,4079
1720287376.077000000,4080
1720287376.077001000,4081
1720287376.092003000,4082
1720287376.092005000,4083
1720287376.092006000,4084
1720287376.092064000,4086
1720287376.092573000,4088
1720287376.092604000,4089
1720287376.092605000,4091
1720287376.092630000,4092
1720287376.094303000,4094
1720287376.094305000,4096
1720287376.094340000,4098
1720287376.094364000,4100
1720287376.094419000,4104
1720287376.094483000,4108
1720287376.095079000,4112
1720287376.095121000,4116
1720287376.107814000,4118
1720287376.107815000,4119
1720287376.121720000,4120
1720287376.121721000,4121
1720287376.146974000,4122
1720287376.146975000,4123
1720287376.161765000,4124
1720287376.161765000,4125
1720287376.176007000,4126
1720287376.176008000,4127
1720287376.189712000,4128
1720287376.189713000,4129
1720287376.212738000,4130
1720287376.212739000,4131
1720287376.226971000,4132
1720287376.226972000,4133
1720287376.241220000,4134
1720287376.241221000,4135
1720287376.255511000,4136
1720287376.255511000,4137
1720287376.269961000,4138
1720287376.269961000,4139
1720287376.284873000,4140
1720287376.284874000,4141
1720287376.284930000,4143
1720287376.284944000,4146
1720287376.284967000,4150
1720287376.285015000,4154
1720287376.285111000,4158
1720287376.285131000,4162
1720287376.285175000,4166
1720287376.285245000,4170
1720287376.285266000,4174
1720287376.309383000,4176
1720287376.309384000,4177
1720287376.323677000,4178
1720287376.323678000,4179
1720287376.337935000,4180
1720287376.337936000,4181
1720287376.352697000,4182
1720287376.352698000,4183
1720287376.376713000,4184
1720287376.376713000,4185
1720287376.390343000,4186
1720287376.404559000,4187
1720287376.404559000,4188
1720287376.419354000,4189
1720287376.444738000,4190
1720287376.460834000,4191
1720287376.475838000,4192
1720287376.491960000,4193
1720287376.491962000,4194
1720287376.491963000,4196
1720287376.492061000,4200
1720287376.492062000,4201
1720287376.492064000,4203
1720287376.492102000,4206
1720287376.492134000,4210
1720287376.492234000,4214
1720287376.492276000,4219
1720287376.492911000,4224
1720287376.508547000,4228
1720287376.524679000,4229
1720287376.540807000,4230
1720287376.556939000,4231
1720287376.572497000,4232
1720287376.588054000,4233
1720287376.630707000,4234
1720287376.630708000,4235
1720287376.640050000,4236
1720287376.654268000,4237
1720287376.667937000,4238
1720287376.693763000,4239
1720287376.693765000,4240
1720287376.693776000,4242
1720287376.693861000,4245
1720287376.693863000,4249
1720287376.693894000,4251
1720287376.693915000,4254
1720287376.693987000,4256
1720287376.693988000,4259
1720287376.694031000,4261
1720287376.694062000,4263
1720287376.694112000,4266
1720287376.694128000,4268
1720287376.694147000,4271
1720287376.697507000,4273
1720287376.710882000,4275
1720287376.726903000,4276
1720287376.742408000,4277
1720287376.758522000,4278
1720287376.774545000,4279
1720287376.790035000,4280
1720287376.806078000,4281
1720287376.821646000,4282
1720287376.836619000,4283
1720287376.852114000,4284
1720287376.876226000,4285
1720287376.892143000,4286
1720287376.892144000,4287
1720287376.892144000,4289
1720287376.892145000,4290
1720287376.892724000,4292
1720287376.892725000,4293
1720287376.892726000,4294
1720287376.892768000,4296
1720287376.892769000,4297
1720287376.892786000,4299
1720287376.892813000,4300
1720287376.892814000,4301
1720287376.892841000,4303
1720287376.892847000,4304
1720287376.892887000,4306
1720287376.892930000,4307
1720287376.892930000,4308
1720287376.892996000,4309
1720287376.892999000,4311
1720287376.893000000,4312
1720287376.895770000,4313
1720287376.895810000,4316
1720287376.895840000,4319
1720287376.907407000,4321
1720287376.921629000,4322
1720287376.935840000,4323
1720287376.959960000,4324
1720287376.974146000,4325
1720287377.015487000,4326
1720287377.015488000,4327
1720287377.026943000,4328
1720287377.041149000,4329
1720287377.055343000,4330
1720287377.069526000,4331
1720287377.094193000,4332
1720287377.094194000,4333
1720287377.094753000,4335
1720287377.094790000,4336
1720287377.094810000,4337
1720287377.094813000,4338
1720287377.094839000,4339
1720287377.094855000,4341
1720287377.094871000,4342
1720287377.094907000,4344
1720287377.094909000,4345
1720287377.094958000,4347
1720287377.094960000,4348
1720287377.094988000,4350
1720287377.095024000,4352
1720287377.095059000,4354
1720287377.095060000,4355
1720287377.095093000,4356
1720287377.095109000,4357
1720287377.095680000,4359
1720287377.095681000,4360
1720287377.095719000,4361
1720287377.098471000,4363
1720287377.098513000,4366
1720287377.109475000,4367
1720287377.123676000,4368
1720287377.137418000,4369
1720287377.151206000,4370
1720287377.191242000,4371
1720287377.191243000,4372
1720287377.203259000,4373
1720287377.227468000,4374
1720287377.227958000,4375
1720287377.241728000,4376
1720287377.242246000,4377
1720287377.256528000,4378
1720287377.256529000,4379
1720287377.270231000,4380
1720287377.270232000,4381
1720287377.296071000,4382
1720287377.296072000,4383
1720287377.296073000,4385
1720287377.296073000,4386
1720287377.296157000,4387
1720287377.296158000,4388
1720287377.296158000,4389
1720287377.296159000,4390
1720287377.296177000,4391
1720287377.296179000,4392
1720287377.296235000,4394
1720287377.296236000,4395
1720287377.296271000,4396
1720287377.296272000,4397
1720287377.296308000,4398
1720287377.296308000,4399
1720287377.296351000,4400
1720287377.296352000,4401
1720287377.296398000,4402
1720287377.296399000,4403
1720287377.296458000,4404
1720287377.296459000,4405
1720287377.297036000,4406
1720287377.297085000,4407
1720287377.297086000,4408
1720287377.297118000,4409
1720287377.300491000,4410
1720287377.300499000,4413
1720287377.301090000,4415
1720287377.311211000,4417
1720287377.311212000,4418
1720287377.325501000,4419
1720287377.326010000,4420
1720287377.340300000,4421
1720287377.340300000,4422
1720287377.354520000,4423
1720287377.354521000,4424
1720287377.369283000,4425
1720287377.369284000,4426
1720287377.393398000,4427
1720287377.393867000,4428
1720287377.408221000,4429
1720287377.408221000,4430
1720287377.424298000,4431
1720287377.424299000,4432
1720287377.439860000,4433
1720287377.439861000,4434
1720287377.455411000,4435
1720287377.455917000,4436
1720287377.470888000,4437
1720287377.470889000,4438
1720287377.497348000,4439
1720287377.497349000,4440
1720287377.497351000,4442
1720287377.497421000,4445
1720287377.497423000,4448
1720287377.497451000,4451
1720287377.497487000,4454
1720287377.497537000,4457
1720287377.498130000,4461
1720287377.498168000,4464
1720287377.498223000,4468
1720287377.498270000,4472
1720287377.512670000,4475
1720287377.512671000,4476
1720287377.512673000,4478
1720287377.513222000,4482
1720287377.528070000,4483
1720287377.528072000,4484
1720287377.528073000,4486
1720287377.528074000,4487
1720287377.528075000,4489
1720287377.528137000,4490
1720287377.528138000,4491
1720287377.542986000,4493
1720287377.542987000,4494
1720287377.542989000,4496
1720287377.543067000,4500
1720287377.543068000,4502
1720287377.543099000,4504
1720287377.559162000,4505
1720287377.559164000,4506
1720287377.559165000,4508
1720287377.559219000,4512
1720287377.559221000,4515
1720287377.575318000,4518
1720287377.575320000,4519
1720287377.575866000,4521
1720287377.575867000,4522
1720287377.575898000,4523
1720287377.575899000,4524
1720287377.575900000,4526
1720287377.575917000,4527
1720287377.575939000,4529
1720287377.575968000,4530
1720287377.591508000,4531
1720287377.591510000,4532
1720287377.591511000,4534
1720287377.591512000,4535
1720287377.591559000,4537
1720287377.591560000,4538
1720287377.591572000,4540
1720287377.591573000,4541
1720287377.591584000,4542
1720287377.607856000,4544
1720287377.607858000,4545
1720287377.607859000,4547
1720287377.607909000,4549
1720287377.607910000,4550
1720287377.607917000,4552
1720287377.607918000,4553
1720287377.607972000,4555
1720287377.607972000,4556
1720287377.622910000,4557
1720287377.622913000,4558
1720287377.622913000,4560
1720287377.622914000,4561
1720287377.622916000,4562
1720287377.622917000,4564
1720287377.622974000,4565
1720287377.623540000,4567
1720287377.639505000,4570
1720287377.639507000,4571
1720287377.639509000,4573
1720287377.639564000,4575
1720287377.639565000,4576
1720287377.639566000,4578
1720287377.639585000,4579
1720287377.639621000,4581
1720287377.639621000,4582
1720287377.661097000,4583
1720287377.661099000,4584
1720287377.661106000,4586
1720287377.661163000,4590
1720287377.661164000,4591
1720287377.661165000,4593
1720287377.661166000,4594
1720287377.661714000,4595
1720287377.661715000,4596
1720287377.676148000,4597
1720287377.676150000,4598
1720287377.676151000,4600
1720287377.691269000,4603
1720287377.691271000,4604
1720287377.691273000,4606
1720287377.691337000,4610
1720287377.691392000,4615
1720287377.691410000,4618
1720287377.691464000,4622
1720287377.691501000,4625
1720287377.692123000,4628
1720287377.692163000,4632
1720287377.706716000,4634
1720287377.706718000,4635
1720287377.706719000,4637
1720287377.706765000,4641
1720287377.706809000,4644
1720287377.721910000,4645
1720287377.721912000,4646
1720287377.722478000,4648
1720287377.722489000,4651
1720287377.722557000,4655
1720287377.737600000,4657
1720287377.737602000,4658
1720287377.737604000,4660
1720287377.738183000,4664
1720287377.738216000,4668
1720287377.753654000,4669
1720287377.753656000,4670
1720287377.753658000,4672
1720287377.753722000,4676
1720287377.753723000,4678
1720287377.779076000,4681
1720287377.779078000,4682
1720287377.779079000,4684
1720287377.779133000,4688
1720287377.779134000,4690
1720287377.779714000,4692
1720287377.806085000,4694
1720287377.806086000,4695
1720287377.806140000,4697
1720287377.806178000,4701
1720287377.806179000,4703
1720287377.823239000,4706
1720287377.823240000,4707
1720287377.823242000,4709
1720287377.823290000,4713
1720287377.823826000,4715
1720287377.823851000,4717
1720287377.838755000,4718
1720287377.838756000,4719
1720287377.838757000,4721
1720287377.838758000,4723
1720287377.838759000,4724
1720287377.838823000,4726
1720287377.838826000,4727
1720287377.838831000,4728
1720287377.838832000,4729
1720287377.853783000,4731
1720287377.853786000,4732
1720287377.853788000,4734
1720287377.853834000,4738
1720287377.853835000,4741
1720287377.853860000,4743
1720287377.869832000,4744
1720287377.869835000,4745
1720287377.869836000,4747
1720287377.869838000,4748
1720287377.870462000,4750
1720287377.870465000,4752
1720287377.870465000,4755
1720287377.870466000,4756
1720287377.885978000,4757
1720287377.885985000,4758
1720287377.885986000,4760
1720287377.885987000,4761
1720287377.886048000,4763
1720287377.886050000,4765
1720287377.886076000,4767
1720287377.886077000,4768
1720287377.900445000,4769
1720287377.900446000,4770
1720287377.900988000,4772
1720287377.900989000,4773
1720287377.901012000,4775
1720287377.901045000,4778
1720287377.901082000,4781
1720287377.901139000,4785
1720287377.901141000,4786
1720287377.901176000,4788
1720287377.901177000,4789
1720287377.901226000,4791
1720287377.901227000,4792
1720287377.916086000,4793
1720287377.916088000,4794
1720287377.916088000,4796
1720287377.916089000,4797
1720287377.916146000,4798
1720287377.916147000,4799
1720287377.931302000,4800
1720287377.931303000,4801
1720287377.931304000,4803
1720287377.931305000,4806
1720287377.931364000,4808
1720287377.931365000,4810
1720287377.957825000,4811
1720287377.957826000,4812
1720287377.958363000,4813
1720287377.958364000,4814
1720287377.958400000,4815
1720287377.958426000,4816
1720287377.958450000,4817
1720287377.958451000,4818
1720287377.958493000,4819
1720287377.958493000,4820
1720287377.958525000,4821
1720287377.978327000,4822
1720287377.978328000,4823
1720287377.978861000,4825
1720287377.978878000,4828
1720287377.978944000,4832
1720287377.978945000,4833
1720287377.993828000,4835
1720287377.993831000,4836
1720287377.993832000,4838
1720287377.993903000,4841
1720287377.993905000,4844
1720287377.993906000,4846
1720287378.008793000,4847
1720287378.008794000,4848
1720287378.008795000,4850
1720287378.008796000,4852
1720287378.008855000,4855
1720287378.008856000,4858
1720287378.024355000,4859
1720287378.024356000,4860
1720287378.024358000,4862
1720287378.024418000,4865
1720287378.024427000,4869
1720287378.039457000,4871
1720287378.039458000,4872
1720287378.039460000,4874
1720287378.039462000,4878
1720287378.054358000,4883
1720287378.054360000,4884
1720287378.054362000,4886
1720287378.054437000,4890
1720287378.054439000,4894
1720287378.069310000,4898
1720287378.069312000,4899
1720287378.069868000,4901
1720287378.069919000,4905
1720287378.096241000,4908
1720287378.096243000,4909
1720287378.096246000,4911
1720287378.096307000,4915
1720287378.096308000,4918
1720287378.122588000,4921
1720287378.122590000,4922
1720287378.123139000,4924
1720287378.123177000,4928
1720287378.123213000,4932
1720287378.149097000,4933
1720287378.149099000,4934
1720287378.149101000,4936
1720287378.149673000,4940
1720287378.149711000,4943
1720287378.164064000,4944
1720287378.164066000,4945
1720287378.164067000,4947
1720287378.164131000,4951
1720287378.180051000,4953
1720287378.180053000,4954
1720287378.180055000,4956
1720287378.196012000,4960
1720287378.196013000,4961
1720287378.196014000,4963
1720287378.196015000,4965
1720287378.196015000,4966
1720287378.210320000,4967
1720287378.224526000,4968
1720287378.238207000,4969
1720287378.252974000,4970
1720287378.267726000,4971
1720287378.282036000,4972
1720287378.296363000,4973
1720287378.310719000,4974
1720287378.324574000,4975
1720287378.338356000,4976
1720287378.352655000,4977
1720287378.367581000,4978
1720287378.367583000,4979
1720287378.367585000,4981
1720287378.367620000,4985
1720287378.383060000,4986
1720287378.383063000,4987
1720287378.383065000,4989
1720287378.383128000,4993
1720287378.398533000,4995
1720287378.398535000,4996
1720287378.398536000,4998
1720287378.398607000,5001
1720287378.398608000,5002
1720287378.398609000,5003
1720287378.398613000,5004
1720287378.398623000,5005
1720287378.413599000,5006
1720287378.413600000,5007
1720287378.413602000,5009
1720287378.413716000,5011
1720287378.413717000,5014
1720287378.413717000,5016
1720287378.428556000,5017
1720287378.428559000,5018
1720287378.428563000,5020
1720287378.428566000,5024
1720287378.428663000,5028
1720287378.444563000,5029
1720287378.444564000,5030
1720287378.444565000,5032
1720287378.444566000,5033
1720287378.444618000,5035
1720287378.444619000,5037
1720287378.444635000,5039
1720287378.460111000,5042
1720287378.460114000,5043
1720287378.460117000,5045
1720287378.460119000,5049
1720287378.460122000,5051
1720287378.460195000,5054
1720287378.476120000,5055
1720287378.476121000,5056
1720287378.476122000,5058
1720287378.476123000,5059
1720287378.476172000,5061
1720287378.476205000,5063
1720287378.476206000,5066
1720287378.492715000,5068
1720287378.492718000,5069
1720287378.492719000,5071
1720287378.492720000,5073
1720287378.492788000,5076
1720287378.492790000,5079
1720287378.514700000,5082
1720287378.514702000,5083
1720287378.514704000,5085
1720287378.514767000,5089
1720287378.514799000,5093
1720287378.535659000,5095
1720287378.535662000,5096
1720287378.536043000,5098
1720287378.536045000,5102
1720287378.536046000,5107
1720287378.554513000,5109
1720287378.554515000,5110
1720287378.554518000,5112
1720287378.554599000,5116
1720287378.554604000,5121
1720287378.569501000,5123
1720287378.569503000,5124
1720287378.569506000,5126
1720287378.569607000,5130
1720287378.569617000,5135
1720287378.586313000,5138
1720287378.586315000,5139
1720287378.586317000,5141
1720287378.586407000,5145
1720287378.586449000,5150
1720287378.611457000,5152
1720287378.611458000,5153
1720287378.611460000,5155
1720287378.611519000,5159
1720287378.611529000,5164
1720287378.611585000,5169
1720287378.611660000,5173
1720287378.611779000,5178
1720287378.611822000,5182
1720287378.633336000,5184
1720287378.633338000,5185
1720287378.633339000,5187
1720287378.633341000,5191
1720287378.633410000,5194
1720287378.656882000,5195
1720287378.656884000,5196
1720287378.656886000,5198
1720287378.656949000,5202
1720287378.656973000,5206
1720287378.672416000,5207
1720287378.672418000,5208
1720287378.672421000,5210
1720287378.672482000,5214
1720287378.672499000,5218
1720287378.687400000,5220
1720287378.687402000,5221
1720287378.687404000,5223
1720287378.687463000,5227
1720287378.687499000,5233
1720287378.702952000,5235
1720287378.702956000,5236
1720287378.702959000,5238
1720287378.703020000,5242
1720287378.703053000,5249
1720287378.718491000,5250
1720287378.718492000,5251
1720287378.718494000,5253
1720287378.718562000,5257
1720287378.718563000,5259
1720287378.718564000,5261
1720287378.718574000,5263
1720287378.733582000,5264
1720287378.733584000,5265
1720287378.733586000,5267
1720287378.734185000,5271
1720287378.734225000,5275
1720287378.734242000,5277
1720287378.749414000,5279
1720287378.749416000,5280
1720287378.749417000,5282
1720287378.749478000,5286
1720287378.749510000,5291
1720287378.771003000,5295
1720287378.771004000,5296
1720287378.771006000,5298
1720287378.771100000,5302
1720287378.771107000,5307
1720287378.793670000,5310
1720287378.793672000,5311
1720287378.793673000,5313
1720287378.814082000,5314
1720287378.814084000,5315
1720287378.836841000,5317
1720287378.836843000,5318
1720287378.836847000,5320
1720287378.836908000,5324
1720287378.836909000,5326
1720287378.837465000,5328
1720287378.837486000,5331
1720287378.837538000,5335
1720287378.837587000,5338
1720287378.837641000,5341
1720287378.837673000,5345
1720287378.837707000,5348
1720287378.837774000,5351
1720287378.837797000,5355
1720287378.837834000,5358
1720287378.857066000,5359
1720287378.857067000,5360
1720287378.877316000,5361
1720287378.898076000,5362
1720287378.916676000,5363
1720287378.937983000,5364
1720287378.956659000,5365
1720287378.977992000,5366
1720287378.997671000,5367
1720287379.016851000,5368
1720287379.037912000,5369
1720287379.054869000,5370
1720287379.078386000,5371
1720287379.078388000,5372
1720287379.078390000,5374
1720287379.078438000,5377
1720287379.078451000,5381
1720287379.078485000,5385
1720287379.078521000,5388
1720287379.078552000,5391
1720287379.078627000,5394
1720287379.078652000,5396
1720287379.078691000,5399
1720287379.078693000,5401
1720287379.078751000,5404
1720287379.079316000,5406
1720287379.079355000,5409
1720287379.079377000,5411
1720287379.098642000,5413
1720287379.098643000,5414
1720287379.118448000,5415
1720287379.118449000,5416
1720287379.138872000,5418
1720287379.138874000,5419
1720287379.138874000,5421
1720287379.159891000,5422
1720287379.159893000,5423
1720287379.180905000,5425
1720287379.180906000,5426
1720287379.180907000,5428
1720287379.201458000,5430
1720287379.201460000,5431
1720287379.201508000,5433
1720287379.201509000,5434
1720287379.219736000,5435
1720287379.219737000,5436
1720287379.219739000,5438
1720287379.235182000,5442
1720287379.235184000,5443
1720287379.235194000,5445
1720287379.250001000,5449
1720287379.250002000,5450
1720287379.250004000,5452
1720287379.250051000,5456
1720287379.268284000,5457
1720287379.268285000,5458
1720287379.268287000,5460
1720287379.268334000,5464
1720287379.289888000,5466
1720287379.289889000,5467
1720287379.289940000,5469
1720287379.289941000,5473
1720287379.312453000,5475
1720287379.312454000,5476
1720287379.312456000,5478
1720287379.312537000,5482
1720287379.312538000,5484
1720287379.312566000,5487
1720287379.313180000,5490
1720287379.313207000,5494
1720287379.313239000,5497
1720287379.313276000,5500
1720287379.313320000,5504
1720287379.313360000,5507
1720287379.313419000,5511
1720287379.313459000,5514
1720287379.334878000,5517
1720287379.334879000,5518
1720287379.334880000,5520
1720287379.357443000,5523
